Time,ECG
1622007941.8374853,1.3688999999999998
1622007941.8378186,1.0404
1622007941.8380127,0.7224999999999999
1622007941.8382277,0.7395999999999999
1622007941.8384116,0.9025
1622007941.8386104,0.8649000000000001
1622007941.8388052,0.6561000000000001
1622007941.8389862,0.5625
1622007941.8391988,0.5776
1622007941.8393962,0.6723999999999999
1622007941.8396215,0.7395999999999999
1622007941.839824,0.6723999999999999
1622007941.840023,0.5184
1622007941.8402066,0.4489000000000001
1622007941.8403993,0.3721
1622007941.8405619,0.27040000000000003
1622007941.8407352,0.1369
1622007941.8409948,1.9043999999999996
1622007941.8411717,1.9320999999999997
1622007941.8413584,1.6641000000000001
1622007941.8415613,1.3688999999999998
1622007941.8417473,1.0404
1622007941.8419497,0.7224999999999999
1622007941.842129,0.7395999999999999
1622007941.8423235,0.9025
1622007941.8425047,0.8649000000000001
1622007941.8426778,0.6561000000000001
1622007941.8428185,0.5625
1622007941.8429906,0.5776
1622007941.843178,0.6723999999999999
1622007941.8433628,0.7395999999999999
1622007941.8435514,0.6723999999999999
1622007941.8437028,0.5184
1622007941.8438833,0.4489000000000001
1622007941.8440404,0.3721
1622007941.844217,0.27040000000000003
1622007941.844384,0.1369
1622007943.3850038,0.2304
1622007943.389074,0.5328999999999999
1622007943.3973026,0.7569
1622007943.401444,0.8649000000000001
1622007943.4096203,0.9409
1622007943.4133704,0.9801
1622007943.421787,1.0201
1622007943.4258904,1.0404
1622007943.434073,1.0609
1622007943.4378698,1.0609
1622007943.4460251,1.0816000000000001
1622007943.4542837,1.0816000000000001
1622007943.458369,1.1025
1622007943.466874,1.1025
1622007943.4706955,1.1236000000000002
1622007943.4791687,1.1664
1622007943.4829566,1.1881000000000002
1622007943.4909785,1.2768999999999997
1622007943.4951441,1.3224999999999998
1622007943.5034013,1.4161
1622007943.5074613,1.5876000000000001
1622007943.515627,1.8496000000000004
1622007943.5196402,2.0448999999999997
1622007943.5280216,2.1904
1622007943.5319629,2.2801
1622007943.540334,2.3409
1622007943.5444334,2.5600000000000005
1622007943.5525944,2.8223999999999996
1622007943.556449,2.8560999999999996
1622007943.5649586,2.8560999999999996
1622007943.5688193,2.8899999999999997
1622007943.5772324,2.9583999999999997
1622007943.5813692,3.1684
1622007943.5895326,3.4596000000000005
1622007943.593667,3.6864
1622007943.6019626,3.9601
1622007943.6101086,4.040099999999999
1622007943.6140833,3.8024999999999998
1622007943.6221209,3.6481
1622007943.6262898,3.5343999999999998
1622007943.634417,3.3856
1622007943.6386003,3.2041
1622007943.646636,3.1329000000000002
1622007943.650775,3.2041
1622007943.658803,3.2041
1622007943.662883,3.1329000000000002
1622007943.6711664,2.9929
1622007943.675298,2.7224999999999997
1622007943.6836069,2.5921000000000003
1622007943.6877263,2.8899999999999997
1622007943.6959813,4.1616
1622007943.6998024,6.864400000000001
1622007943.70794,10.758399999999998
1622007943.7123616,13.7641
1622007943.7205362,13.690000000000001
1622007943.7246542,10.956100000000001
1622007943.7328293,7.290000000000001
1622007943.7366695,4.4521
1622007943.7451584,2.7224999999999997
1622007943.7533422,1.8225000000000002
1622007943.7572978,1.3456
1622007943.7654662,1.0609
1622007943.769577,0.8835999999999999
1622007943.7777283,0.81
1622007943.7818825,0.7569
1622007943.789905,0.7224999999999999
1622007943.7939599,0.7055999999999999
1622007943.8025188,0.7055999999999999
1622007943.8066266,0.7569
1622007943.8146012,0.8281000000000001
1622007943.818783,0.9409
1622007943.827208,1.0816000000000001
1622007943.830977,1.2321000000000002
1622007943.8392534,1.3688999999999998
1622007943.8432758,1.5376
1622007943.851604,1.7161000000000002
1622007943.855794,1.8496000000000004
1622007943.863904,2.0164
1622007943.8678508,2.1904
1622007943.8762038,2.4336
1622007943.8803546,2.6895999999999995
1622007943.888316,2.9240999999999997
1622007943.896405,3.0276
1622007943.9005523,3.1329000000000002
1622007943.908688,3.2761
1622007943.9127445,3.3489000000000004
1622007943.9210203,3.3124000000000002
1622007943.9253287,3.24
1622007943.9335105,3.0276
1622007943.9377189,2.7556
1622007943.945841,2.6569
1622007943.9497237,2.5921000000000003
1622007943.9581845,2.5281000000000002
1622007943.9623032,2.4649
1622007943.9704335,2.3104
1622007943.9744003,2.1025
1622007943.9826882,2.0164
1622007943.986824,2.0164
1622007943.9949932,1.9880999999999998
1622007943.9990232,1.9320999999999997
1622007944.0073483,1.9599999999999997
1622007944.0114105,2.0736
1622007944.0194595,2.2201
1622007944.0235825,2.4649
1622007944.0316505,2.7224999999999997
1622007944.035798,2.8899999999999997
1622007944.0439603,2.8560999999999996
1622007944.0521576,2.7556
1622007944.056276,2.6569
1622007944.064732,2.7556
1622007944.0686047,2.8560999999999996
1622007944.07703,2.7556
1622007944.0811696,2.6244000000000005
1622007944.0893226,2.5281000000000002
1622007944.09318,2.4649
1622007944.10151,2.4336
1622007944.1057477,2.4336
1622007944.1138628,2.3716
1622007944.1180503,2.4336
1622007944.1262527,2.4649
1622007944.130333,2.4336
1622007944.138583,2.3104
1622007944.1426725,2.3716
1622007944.1508412,2.4649
1622007944.154815,2.5921000000000003
1622007944.162784,2.5921000000000003
1622007944.166872,2.6895999999999995
1622007944.1749425,2.6569
1622007944.1790876,2.5281000000000002
1622007944.1873546,2.4025000000000003
1622007944.1956081,2.2801
1622007944.1997933,2.25
1622007944.207961,2.1904
1622007944.2120602,2.1025
1622007944.2201123,2.0736
1622007944.2243843,2.0736
1622007944.2325673,1.9880999999999998
1622007944.236717,1.9043999999999996
1622007944.245037,1.9880999999999998
1622007944.2491267,2.4964000000000004
1622007944.2572906,4.0
1622007944.2613766,6.969600000000001
1622007944.2697053,10.956100000000001
1622007944.2735484,12.8881
1622007944.281589,11.424399999999999
1622007944.2856753,8.41
1622007944.293865,5.3361
1622007944.2978609,3.2041
1622007944.3061337,2.0736
1622007944.3103287,1.5376
1622007944.3188462,1.2321000000000002
1622007944.3226664,1.1449
1622007944.3309424,1.1449
1622007944.339002,1.2321000000000002
1622007944.343105,1.3688999999999998
1622007944.3513572,1.4884
1622007944.3553908,1.5129
1622007944.3637364,1.5129
1622007944.36792,1.5376
1622007944.3760448,1.5129
1622007944.3802197,1.6129
1622007944.388368,1.7689000000000001
1622007944.392267,1.9320999999999997
1622007944.4002986,2.1315999999999997
1622007944.4044492,2.4025000000000003
1622007944.4126544,2.4649
1622007944.4166431,2.5281000000000002
1622007944.4247375,2.5921000000000003
1622007944.4289155,2.6569
1622007944.4374444,2.6895999999999995
1622007944.4411902,2.7224999999999997
1622007944.44969,2.8223999999999996
1622007944.4538188,2.8899999999999997
1622007944.4619427,2.9240999999999997
1622007944.4658697,2.9929
1622007944.4741302,3.0276
1622007944.4783309,3.0276
1622007944.4861698,3.0276
1622007944.4944415,2.8899999999999997
1622007944.498833,2.6895999999999995
1622007944.506755,2.4964000000000004
1622007944.511226,2.2201
1622007944.519199,2.0164
1622007944.5232887,1.9320999999999997
1622007944.5313299,1.8496000000000004
1622007944.5354896,1.7956000000000003
1622007944.5436583,1.7689000000000001
1622007944.5477743,1.7424000000000002
1622007944.5557606,1.7689000000000001
1622007944.5599115,1.7689000000000001
1622007944.5682132,1.7689000000000001
1622007944.5725534,1.7424000000000002
1622007944.580723,1.7689000000000001
1622007944.58462,1.9043999999999996
1622007944.5929487,2.0448999999999997
1622007944.597085,2.0736
1622007944.6052723,2.0164
1622007944.609429,1.9880999999999998
1622007944.6175728,1.9599999999999997
1622007944.621473,2.0448999999999997
1622007944.6299074,2.1609
1622007944.638052,2.2201
1622007944.64211,2.3104
1622007944.6501808,2.4025000000000003
1622007944.6543596,2.4336
1622007944.6625135,2.4336
1622007944.6666038,2.4964000000000004
1622007944.674787,2.4649
1622007944.6789212,2.4336
1622007944.6870391,2.3716
1622007944.6910574,2.4025000000000003
1622007944.6991503,2.5600000000000005
1622007944.7035272,2.6569
1622007944.7117605,2.5921000000000003
1622007944.7156794,2.4649
1622007944.7240183,2.4649
1622007944.7281644,2.4649
1622007944.7363214,2.3716
1622007944.740268,2.2801
1622007944.74863,2.1904
1622007944.7528174,2.1904
1622007944.760908,2.2201
1622007944.764901,2.2801
1622007944.773275,2.1315999999999997
1622007944.781408,1.9599999999999997
1622007944.78534,1.9320999999999997
1622007944.7937481,2.4025000000000003
1622007944.7977164,3.7636
1622007944.8057911,6.604899999999999
1622007944.809916,10.889999999999999
1622007944.8180466,13.838400000000002
1622007944.822045,13.1769
1622007944.830188,9.985600000000002
1622007944.834264,6.6564000000000005
1622007944.8427553,4.3264000000000005
1622007944.8468492,2.8223999999999996
1622007944.8553815,1.9599999999999997
1622007944.8591828,1.5129
1622007944.8673723,1.3456
1622007944.8714185,1.3456
1622007944.879813,1.3456
1622007944.8837376,1.3923999999999999
1622007944.892132,1.3688999999999998
1622007944.8962631,1.4641
1622007944.904413,1.6641000000000001
1622007944.9082623,1.8225000000000002
1622007944.9167404,1.8769000000000002
1622007944.9206393,2.0736
1622007944.929106,2.2801
1622007944.9369202,2.4025000000000003
1622007944.9410248,2.4964000000000004
1622007944.9491649,2.6569
1622007944.9533818,2.6895999999999995
1622007944.9618533,2.7889
1622007944.9659886,2.9583999999999997
1622007944.9741328,3.0625
1622007944.9782665,3.1329000000000002
1622007944.9862044,3.24
1622007944.9902682,3.2761
1622007944.9987788,3.3124000000000002
1622007945.002575,3.3489000000000004
1622007945.010903,3.3856
1622007945.0148993,3.1684
1622007945.0231025,3.0276
1622007945.027429,2.9583999999999997
1622007945.0354402,2.7889
1622007945.0393734,2.6244000000000005
1622007945.0476773,2.4336
1622007945.0517561,2.2201
1622007945.0598414,2.0736
1622007945.0639386,1.9599999999999997
1622007945.072106,1.8496000000000004
1622007945.0801244,1.7956000000000003
1622007945.084256,1.8769000000000002
1622007945.0926902,1.8496000000000004
1622007945.0968292,1.7956000000000003
1622007945.1049428,1.7161000000000002
1622007945.1088793,1.7161000000000002
1622007945.1169324,1.7689000000000001
1622007945.121383,1.8496000000000004
1622007945.129501,1.8769000000000002
1622007945.1339014,1.8496000000000004
1622007945.1420467,1.8496000000000004
1622007945.1461575,1.8496000000000004
1622007945.1543655,1.7956000000000003
1622007945.1581914,1.8496000000000004
1622007945.1667564,1.9320999999999997
1622007945.1704807,1.9320999999999997
1622007945.179031,2.0448999999999997
1622007945.1828516,2.1904
1622007945.190918,2.1315999999999997
1622007945.1950185,1.9880999999999998
1622007945.2031846,1.9043999999999996
1622007945.2073073,1.9320999999999997
1622007945.215283,1.9880999999999998
1622007945.2237673,2.1315999999999997
1622007945.227844,2.2801
1622007945.2360525,2.3716
1622007945.2401614,2.4964000000000004
1622007945.2483552,2.5281000000000002
1622007945.2524283,2.4964000000000004
1622007945.2604856,2.4025000000000003
1622007945.264798,2.3409
1622007945.2729063,2.2801
1622007945.2769976,2.2201
1622007945.2854514,2.2201
1622007945.2895548,2.1904
1622007945.2977428,2.1904
1622007945.301837,2.1904
1622007945.3097272,2.2201
1622007945.3140686,2.1609
1622007945.3219755,1.9880999999999998
1622007945.3260207,1.8496000000000004
1622007945.3342602,1.8225000000000002
1622007945.3383741,2.2801
1622007945.3463078,3.7636
1622007945.3508208,6.864400000000001
1622007945.3588135,11.289599999999998
1622007945.3629203,14.44
1622007945.371307,13.7641
1622007945.3793697,10.240000000000002
1622007945.383494,6.604899999999999
1622007945.3916543,4.0804
1622007945.3958404,2.6244000000000005
1622007945.4039862,1.8225000000000002
1622007945.4080126,1.4161
1622007945.4162273,1.2321000000000002
1622007945.4205818,1.1881000000000002
1622007945.4287462,1.1881000000000002
1622007945.432846,1.2100000000000002
1622007945.441019,1.3224999999999998
1622007945.444905,1.4641
1622007945.4530628,1.5129
1622007945.4571776,1.5129
1622007945.4653234,1.6129
1622007945.469474,1.7161000000000002
1622007945.477486,1.8225000000000002
1622007945.4815803,1.9043999999999996
1622007945.4895797,1.9320999999999997
1622007945.4936957,1.9320999999999997
1622007945.5020607,2.0736
1622007945.5064175,2.3104
1622007945.51433,2.4649
1622007945.5226784,2.4964000000000004
1622007945.5271482,2.5281000000000002
1622007945.5353117,2.5600000000000005
1622007945.53905,2.6569
1622007945.5473325,2.7889
1622007945.551644,2.8560999999999996
1622007945.5595498,2.8223999999999996
1622007945.5636473,2.7556
1622007945.5719128,2.6569
1622007945.57623,2.5600000000000005
1622007945.584366,2.5281000000000002
1622007945.5881946,2.4336
1622007945.5963922,2.2201
1622007945.600479,2.0448999999999997
1622007945.6086764,1.9320999999999997
1622007945.6126978,1.8769000000000002
1622007945.6207473,1.7956000000000003
1622007945.6251538,1.7956000000000003
1622007945.6333923,1.8225000000000002
1622007945.6374507,1.8769000000000002
1622007945.6455047,2.0448999999999997
1622007945.6496773,2.2201
1622007945.6579297,2.1904
1622007945.6661012,2.0736
1622007945.670233,2.0736
1622007945.6784372,2.1609
1622007945.6823254,2.25
1622007945.6909475,2.3104
1622007945.694785,2.2801
1622007945.7032282,2.25
1622007945.7070327,2.3409
1622007945.7152011,2.3716
1622007945.7192507,2.3716
1622007945.7273645,2.4336
1622007945.731623,2.4649
1622007945.739751,2.4964000000000004
1622007945.7438807,2.6244000000000005
1622007945.751861,2.7224999999999997
1622007945.75618,2.6244000000000005
1622007945.764632,2.5281000000000002
1622007945.768473,2.4649
1622007945.776946,2.4336
1622007945.7807815,2.3716
1622007945.7891998,2.4964000000000004
1622007945.7930307,2.5600000000000005
1622007945.8015277,2.6244000000000005
1622007945.8056278,2.6569
1622007945.813792,2.6895999999999995
1622007945.8219981,2.6244000000000005
1622007945.8261151,2.5600000000000005
1622007945.8340728,2.4964000000000004
1622007945.8381047,2.4336
1622007945.846623,2.4025000000000003
1622007945.8504078,2.4336
1622007945.8584857,2.4025000000000003
1622007945.8626218,2.4025000000000003
1622007945.8707798,2.3716
1622007945.8747761,2.3409
1622007945.8828828,2.2801
1622007945.886975,2.1025
1622007945.8953748,1.8496000000000004
1622007945.8994389,1.9043999999999996
1622007945.9077682,2.6569
1622007945.9115796,4.5796
1622007945.91984,8.1225
1622007945.924181,12.180100000000001
1622007945.9323742,13.690000000000001
1622007945.9364944,11.4921
1622007945.9446104,8.0089
1622007945.9485443,5.107599999999999
1622007945.9570155,3.0976
1622007945.9651134,2.0448999999999997
1622007945.9691007,1.5376
1622007945.9774563,1.3456
1622007945.9813194,1.3224999999999998
1622007945.9895046,1.3688999999999998
1622007945.993651,1.3923999999999999
1622007946.0017667,1.44
1622007946.0059066,1.6129
1622007946.0140285,1.7689000000000001
1622007946.0182188,1.8496000000000004
1622007946.0266006,1.9043999999999996
1622007946.0305545,1.9880999999999998
1622007946.0389357,2.1025
1622007946.042789,2.25
1622007946.0512059,2.2801
1622007946.0549657,2.3409
1622007946.063259,2.4336
1622007946.0674329,2.4964000000000004
1622007946.0755844,2.5921000000000003
1622007946.0795877,2.7556
1622007946.087818,2.9240999999999997
1622007946.0917892,2.9929
1622007946.1002707,3.1684
1622007946.1043613,3.2761
1622007946.112384,3.2761
1622007946.1205335,3.2041
1622007946.1246896,3.2041
1622007946.1328516,3.0276
1622007946.1369805,2.7556
1622007946.1454196,2.5921000000000003
1622007946.149591,2.4649
1622007946.1577446,2.3716
1622007946.1618469,2.2201
1622007946.1700003,2.1025
1622007946.1741822,2.0448999999999997
1622007946.1822352,1.9599999999999997
1622007946.1866155,1.8769000000000002
1622007946.1948187,1.8225000000000002
1622007946.5631692,1.8225000000000002
1622007946.5688126,1.8769000000000002
1622007946.5691051,1.8496000000000004
1622007946.569416,1.8225000000000002
1622007946.5696337,1.8496000000000004
1622007946.5698843,1.8225000000000002
1622007946.5700889,1.7689000000000001
1622007946.5703459,1.7689000000000001
1622007946.5705755,1.8769000000000002
1622007946.5708556,1.9043999999999996
1622007946.57109,1.9880999999999998
1622007946.571297,2.1025
1622007946.5714836,2.2201
1622007946.5717099,2.25
1622007946.5719805,2.2801
1622007946.572362,2.3104
1622007946.5727437,2.25
1622007946.5729623,2.25
1622007946.5731401,2.2801
1622007946.573309,2.2201
1622007946.573464,2.1609
1622007946.573631,2.25
1622007946.5738032,2.3409
1622007946.5739522,2.3409
1622007946.5741236,2.3409
1622007946.5742896,2.3716
1622007946.5744414,2.4964000000000004
1622007946.5746229,2.6244000000000005
1622007946.5747867,2.6895999999999995
1622007946.5749388,2.6895999999999995
1622007946.5751123,2.5921000000000003
1622007946.5752642,2.4649
1622007946.5754132,2.4025000000000003
1622007946.5755835,2.3104
1622007946.5757334,2.2201
1622007946.5758958,2.1609
1622007946.5760598,2.2801
1622007946.576212,2.4025000000000003
1622007946.5763814,2.3716
1622007946.5765316,2.1904
1622007946.5767205,2.1025
1622007946.5769007,2.1609
1622007946.5771027,2.5921000000000003
1622007946.5772848,4.0
1622007946.5774565,6.760000000000001
1622007946.5776281,10.112400000000001
1622007946.577812,11.7649
1622007946.5779908,10.3041
1622007946.5781598,7.3441
1622007946.5783448,4.7089
1622007946.5785234,2.9929
1622007946.5791576,1.9043999999999996
1622007946.57945,1.44
1622007946.5796406,1.2995999999999999
1622007946.5799081,1.2768999999999997
1622007946.5801334,1.3456
1622007946.5803692,1.4641
1622007946.580641,1.5876000000000001
1622007946.580895,1.7424000000000002
1622007946.5810812,1.9599999999999997
1622007946.5812845,2.1025
1622007946.5814602,2.1904
1622007946.5872881,2.25
1622007946.591409,2.25
1622007946.599561,2.2201
1622007946.6037133,2.2201
1622007946.611951,2.2801
1622007946.6160064,2.3716
1622007946.6244638,2.5921000000000003
1622007946.6286738,2.7889
1622007946.636453,2.8899999999999997
1622007946.6405835,3.0276
1622007946.6487374,3.1329000000000002
1622007946.6528153,3.2041
1622007946.6609983,3.1684
1622007946.6651568,3.1684
1622007946.6735506,3.0976
1622007946.6774838,2.9929
1622007946.6856527,2.9929
1622007946.6898432,2.8560999999999996
1622007946.6979733,2.6895999999999995
1622007946.7062364,2.5281000000000002
1622007946.7104926,2.3104
1622007946.7184143,2.1025
1622007946.722597,1.9599999999999997
1622007946.7309763,1.9043999999999996
1622007946.7350512,1.9043999999999996
1622007946.74342,1.8769000000000002
1622007946.7474673,1.9043999999999996
1622007946.7554545,1.8769000000000002
1622007946.7596192,1.7956000000000003
1622007946.767836,1.7161000000000002
1622007946.7719216,1.7161000000000002
1622007946.7804205,1.7161000000000002
1622007946.7842975,1.7689000000000001
1622007946.7926197,1.8225000000000002
1622007946.7966418,1.8225000000000002
1622007946.8047428,1.8769000000000002
1622007946.8089132,2.0164
1622007946.8169649,2.1315999999999997
1622007946.8209734,2.1904
1622007946.8290987,2.1904
1622007946.8333077,2.1315999999999997
1622007946.8413584,2.1315999999999997
1622007946.8496373,2.1315999999999997
1622007946.8536103,2.1904
1622007946.8618832,2.1904
1622007946.8659704,2.2201
1622007946.8744724,2.1609
1622007946.8783948,2.1904
1622007946.8865252,2.25
1622007946.8907564,2.3716
1622007946.8989503,2.4336
1622007946.9029777,2.3716
1622007946.9111142,2.3104
1622007946.9153466,2.3409
1622007946.923598,2.4336
1622007946.9276237,2.5921000000000003
1622007946.935873,2.5600000000000005
1622007946.9398851,2.4336
1622007946.948044,2.3409
1622007946.9521747,2.2801
1622007946.9602044,2.2801
1622007946.9642816,2.2801
1622007946.9723678,2.25
1622007946.976587,2.25
1622007946.9849665,2.3409
1622007946.9891407,2.3409
1622007946.9971955,2.25
1622007947.0054047,2.0736
1622007947.0093925,1.8496000000000004
1622007947.0178823,1.9320999999999997
1622007947.021952,2.7224999999999997
1622007947.0300193,4.6225
1622007947.034079,7.896100000000001
1622007947.0423303,11.628100000000002
1622007947.046366,13.1044
1622007947.0548646,11.289599999999998
1622007947.0586753,8.1225
1622007947.0671737,5.2441
1622007947.0709743,3.2041
1622007947.0790036,2.1025
1622007947.0833135,1.5876000000000001
1622007947.091239,1.3923999999999999
1622007947.0952907,1.3224999999999998
1622007947.103587,1.2768999999999997
1622007947.107611,1.3456
1622007947.116025,1.3923999999999999
1622007947.1200597,1.4161
1622007947.1283379,1.5129
1622007947.1325128,1.6129
1622007947.1405423,1.7161000000000002
1622007947.148813,1.8496000000000004
1622007947.152596,1.9043999999999996
1622007947.160954,1.9599999999999997
1622007947.1651425,2.0448999999999997
1622007947.1734293,2.1609
1622007947.1775415,2.2201
1622007947.1858046,2.3409
1622007947.1900048,2.4336
1622007947.1982186,2.6244000000000005
1622007947.2020268,2.6895999999999995
1622007947.210093,2.6895999999999995
1622007947.214242,2.6569
1622007947.222432,2.6895999999999995
1622007947.2264352,2.6895999999999995
1622007947.2344792,2.7224999999999997
1622007947.2387147,2.6569
1622007947.2472405,2.5600000000000005
1622007947.250947,2.4649
1622007947.25934,2.4025000000000003
1622007947.2634585,2.4025000000000003
1622007947.2716546,2.4336
1622007947.275764,2.4025000000000003
1622007947.2839677,2.3716
1622007947.292143,2.2201
1622007947.2959838,1.9880999999999998
1622007947.3042214,1.9043999999999996
1622007947.30828,1.9320999999999997
1622007947.316846,1.9880999999999998
1622007947.3209848,1.9880999999999998
1622007947.3291209,1.9599999999999997
1622007947.487598,1.9599999999999997
1622007947.4879982,1.9880999999999998
1622007947.4883318,1.9599999999999997
1622007947.4886243,2.0164
1622007947.4888601,2.1315999999999997
1622007947.489164,2.1315999999999997
1622007947.4894989,2.1609
1622007947.4897897,2.1315999999999997
1622007947.489988,2.1609
1622007947.4902284,2.25
1622007947.4904642,2.3409
1622007947.4908047,2.4025000000000003
1622007947.491098,2.3716
1622007947.4913807,2.1904
1622007947.4916148,2.0736
1622007947.4918118,2.1315999999999997
1622007947.4921236,2.1904
1622007947.4923785,2.2201
1622007947.4926357,2.3409
1622007947.4928732,2.4025000000000003
1622007947.493164,2.3716
1622007947.4933898,2.3104
1622007947.4936612,2.3104
1622007947.49395,2.25
1622007947.494217,2.1904
1622007947.4944613,2.25
1622007947.496549,2.3104
1622007947.5008845,2.3716
1622007947.5091426,2.4964000000000004
1622007947.513542,2.6244000000000005
1622007947.5215816,2.5921000000000003
1622007947.5256124,2.5600000000000005
1622007947.5338583,2.5281000000000002
1622007947.5380147,2.4336
1622007947.5461762,2.3409
1622007947.550311,2.25
1622007947.5584822,2.2201
1622007947.562459,2.2201
1622007947.570369,2.1904
1622007947.5747705,2.1025
1622007947.5827684,1.9880999999999998
1622007947.5908809,2.1904
1622007947.5949397,3.0976
1622007947.6031218,5.2441
1622007947.607226,8.940100000000001
1622007947.6157825,12.96
1622007947.6197128,13.838400000000002
1622007947.6280475,11.4921
1622007947.6321373,8.0656
1622007947.6401925,5.107599999999999
1622007947.6444008,3.24
1622007947.6527276,2.2201
1622007947.6566815,1.6641000000000001
1622007947.6647666,1.4161
1622007947.6692154,1.2995999999999999
1622007947.6773639,1.2768999999999997
1622007947.6814654,1.3923999999999999
1622007947.689634,1.5129
1622007947.693768,1.5625
1622007947.7019868,1.6384
1622007947.7057474,1.7424000000000002
1622007947.7139006,1.7689000000000001
1622007947.7180066,1.7689000000000001
1622007947.7261803,1.8225000000000002
1622007947.7342083,1.9320999999999997
1622007947.7383213,2.0736
1622007947.7470036,2.1609
1622007947.7508512,2.2201
1622007947.7591348,2.3409
1622007947.76308,2.4649
1622007947.7712312,2.6244000000000005
1622007947.7756207,2.6569
1622007947.783764,2.7224999999999997
1622007947.7879465,2.8223999999999996
1622007947.796088,2.9240999999999997
1622007947.8002548,2.8560999999999996
1622007947.8082812,2.7889
1622007947.8126347,2.7556
1622007947.8207152,2.6895999999999995
1622007947.8245714,2.6244000000000005
1622007947.8329504,2.5600000000000005
1622007947.8371353,2.4964000000000004
1622007947.845005,2.4649
1622007947.8491092,2.4336
1622007947.8572752,2.2801
1622007947.8612802,2.1609
1622007947.8694098,2.0736
1622007947.8735044,2.0164
1622007947.8820264,1.9599999999999997
1622007947.8902223,1.9320999999999997
1622007947.8940818,1.8496000000000004
1622007947.9021344,1.8496000000000004
1622007947.906506,1.9043999999999996
1622007947.9146001,1.9599999999999997
1622007947.918658,2.0164
1622007947.9272575,2.0736
1622007947.9309864,2.1025
1622007947.9392886,2.1025
1622007947.9435885,2.1025
1622007947.951664,2.1025
1622007947.9558637,2.0448999999999997
1622007947.9640245,2.0736
1622007947.9681845,2.0736
1622007947.9760752,2.0736
1622007947.980185,2.0164
1622007947.9883468,2.0736
1622007947.9925113,2.1609
1622007948.0005717,2.25
1622007948.0046759,2.3104
1622007948.0130794,2.3104
1622007948.0171971,2.3409
1622007948.0253139,2.3716
1622007948.0334814,2.3409
1622007948.0376403,2.3409
1622007948.0454352,2.3104
1622007948.049547,2.2201
1622007948.0576627,2.1609
1622007948.0622554,2.1904
1622007948.0704443,2.25
1622007948.0742803,2.3716
1622007948.0826504,2.5921000000000003
1622007948.0866237,2.7224999999999997
1622007948.0950086,2.6895999999999995
1622007948.0990512,2.6244000000000005
1622007948.1072507,2.6244000000000005
1622007948.1112585,2.5281000000000002
1622007948.1194024,2.4336
1622007948.1235318,2.4649
1622007948.131697,2.5921000000000003
1622007948.135698,2.5921000000000003
1622007948.14389,2.5281000000000002
1622007948.1482115,2.4336
1622007948.1563745,2.2801
1622007948.160229,2.0448999999999997
1622007948.168453,1.9320999999999997
1622007948.1769092,2.1904
1622007948.1809378,3.2041
1622007948.1891878,5.522500000000001
1622007948.1933444,9.3636
1622007948.2016017,13.1044
1622007948.2057247,13.838400000000002
1622007948.2137017,11.4921
1622007948.217764,7.952399999999999
1622007948.2262204,5.0625
1622007948.230057,3.3124000000000002
1622007948.2381508,2.25
1622007948.242331,1.6384
1622007948.2504733,1.3923999999999999
1622007948.254641,1.2768999999999997
1622007948.2628095,1.2544000000000002
1622007948.2667918,1.3923999999999999
1622007948.2749336,1.5376
1622007948.2791214,1.6129
1622007948.2874446,1.7161000000000002
1622007948.29147,1.7689000000000001
1622007948.2996995,1.7689000000000001
1622007948.303636,1.7689000000000001
1622007948.3120737,1.9320999999999997
1622007948.3161433,2.0736
1622007948.3243048,2.1904
1622007948.3324478,2.3104
1622007948.3365939,2.3716
1622007948.344788,2.4025000000000003
1622007948.3486924,2.5281000000000002
1622007948.3571806,2.6244000000000005
1622007948.3613465,2.7556
1622007948.3695898,2.8560999999999996
1622007948.3737073,2.8223999999999996
1622007948.3815324,2.7556
1622007948.3856835,2.6895999999999995
1622007948.3938096,2.7224999999999997
1622007948.3979626,2.7224999999999997
1622007948.4060543,2.6895999999999995
1622007948.4101362,2.6244000000000005
1622007948.4186492,2.4964000000000004
1622007948.4227362,2.4336
1622007948.4308884,2.4336
1622007948.434759,2.3104
1622007948.4432542,2.1315999999999997
1622007948.4469788,2.0448999999999997
1622007948.4552727,2.0164
1622007948.4592252,1.9043999999999996
1622007948.4676528,1.8769000000000002
1622007948.4758434,1.8496000000000004
1622007948.4798427,1.8496000000000004
1622007948.488161,1.9043999999999996
1622007948.4923155,1.9320999999999997
1622007948.5004804,1.9043999999999996
1622007948.5047643,1.9043999999999996
1622007948.512663,1.8769000000000002
1622007948.5167317,1.9043999999999996
1622007948.5249248,2.0164
1622007948.5290427,2.1025
1622007948.5371678,2.1609
1622007948.5412257,2.1609
1622007948.5494728,2.1609
1622007948.5535793,2.25
1622007948.561999,2.3104
1622007948.566103,2.2801
1622007948.5742714,2.25
1622007948.5780153,2.2201
1622007948.586636,2.2201
1622007948.5904393,2.2201
1622007948.598648,2.2201
1622007948.602682,2.2201
1622007948.6108434,2.1904
1622007948.6190758,2.1904
1622007948.623197,2.1904
1622007948.6313238,2.1904
1622007948.6356652,2.2801
1622007948.6439238,2.3409
1622007948.64785,2.3716
1622007948.6559033,2.3716
1622007948.6600442,2.4336
1622007948.668201,2.4649
1622007948.6723535,2.4649
1622007948.6803691,2.4336
1622007948.6846771,2.5281000000000002
1622007948.6931093,2.6569
1622007948.6969593,2.6895999999999995
1622007948.7054217,2.6569
1622007948.7095222,2.5921000000000003
1622007948.717525,2.5600000000000005
1622007948.7218409,2.4336
1622007948.7300088,2.3409
1622007948.7339303,2.3104
1622007948.742317,2.25
1622007948.7464068,2.2201
1622007948.7546525,2.3104
1622007948.7584114,2.3409
1622007948.7669797,2.3104
1622007948.7750847,2.1904
1622007948.7789624,2.1025
1622007948.7868865,2.5921000000000003
1622007948.791085,4.2025
1622007948.7991295,7.182400000000001
1622007948.8032496,10.889999999999999
1622007948.811526,12.8164
1622007948.8156214,11.0889
1622007948.8240032,7.839999999999999
1622007948.8281407,5.107599999999999
1622007948.8361874,3.2041
1622007948.8401697,2.0736
1622007948.8485572,1.6129
1622007948.852679,1.4161
1622007948.8608894,1.2995999999999999
1622007948.865049,1.2995999999999999
1622007948.8732994,1.44
1622007948.877276,1.6129
1622007948.8856351,1.7161000000000002
1622007948.889746,1.8496000000000004
1622007948.8979664,1.9880999999999998
1622007948.9018595,2.1025
1622007948.9102194,2.1025
1622007948.918042,2.1315999999999997
1622007948.9221635,2.25
1622007948.9303179,2.4336
1622007948.934404,2.6244000000000005
1622007948.9425223,2.7224999999999997
1622007948.9466937,2.7224999999999997
1622007948.9549527,2.6895999999999995
1622007948.9589775,2.7889
1622007948.9671867,2.9240999999999997
1622007948.9714549,3.0276
1622007948.979534,3.0976
1622007948.9835832,3.1684
1622007948.991971,3.24
1622007948.9960194,3.1684
1622007949.0043721,3.2041
1622007949.0082405,3.1329000000000002
1622007949.016674,2.9240999999999997
1622007949.0204911,2.5921000000000003
1622007949.0289829,2.4964000000000004
1622007949.0331016,2.4336
1622007949.0412893,2.3409
1622007949.205834,2.25
1622007949.206152,2.0736
1622007949.2063859,1.9043999999999996
1622007949.2065728,1.7956000000000003
1622007949.2067647,1.7161000000000002
1622007949.206927,1.6900000000000002
1622007949.2070954,1.6641000000000001
1622007949.207274,1.6900000000000002
1622007949.2074916,1.7161000000000002
1622007949.2076666,1.7424000000000002
1622007949.2078958,1.8496000000000004
1622007949.2080839,1.9880999999999998
1622007949.2082708,2.0736
1622007949.2084527,2.0736
1622007949.2086408,2.0164
1622007949.2088346,1.9599999999999997
1622007949.2090392,1.9599999999999997
1622007949.2093587,2.0448999999999997
1622007949.2099094,2.1025
1622007949.210904,2.2201
1622007949.211398,2.25
1622007949.2116477,2.2801
1622007949.211865,2.2801
1622007949.2120664,2.3716
1622007949.2122922,2.3409
1622007949.2125132,2.25
1622007949.2127156,2.25
1622007949.2169936,2.25
1622007949.221131,2.2801
1622007949.2296233,2.3409
1622007949.2333555,2.3716
1622007949.2419002,2.3104
1622007949.2459996,2.2801
1622007949.2541745,2.3104
1622007949.2579165,2.3716
1622007949.2661803,2.4025000000000003
1622007949.2707024,2.4964000000000004
1622007949.278916,2.6244000000000005
1622007949.2831116,2.6569
1622007949.2912705,2.6244000000000005
1622007949.295011,2.5600000000000005
1622007949.3033535,2.4964000000000004
1622007949.3072977,2.4964000000000004
1622007949.3154132,2.4336
1622007949.3195481,2.25
1622007949.32773,2.2201
1622007949.3318229,2.2801
1622007949.3398178,2.3104
1622007949.3439853,2.2801
1622007949.3523114,2.1904
1622007949.3607464,2.0448999999999997
1622007949.3649073,2.1315999999999997
1622007949.3730552,2.8223999999999996
1622007949.3771796,4.5796
1622007949.3852577,7.617599999999999
1622007949.3894882,10.956100000000001
1622007949.3976624,11.833599999999999
1622007949.4017653,9.672099999999999
1622007949.4099896,6.604899999999999
1622007949.4137805,4.120899999999999
1622007949.4221337,2.5600000000000005
1622007949.4263651,1.7689000000000001
1622007949.434495,1.3923999999999999
1622007949.4384308,1.2544000000000002
1622007949.4466598,1.2544000000000002
1622007949.4506633,1.3688999999999998
1622007949.4588296,1.5129
1622007949.4629343,1.6129
1622007949.4710217,1.7161000000000002
1622007949.4750755,1.8496000000000004
1622007949.483238,1.9599999999999997
1622007949.487252,2.0448999999999997
1622007949.495731,2.1609
1622007949.5037074,2.2801
1622007949.5080233,2.3409
1622007949.5162516,2.4336
1622007949.5201793,2.4649
1622007949.528568,2.5281000000000002
1622007949.5325718,2.5921000000000003
1622007949.5409865,2.6895999999999995
1622007949.5450807,2.8223999999999996
1622007949.5532832,2.9583999999999997
1622007949.557351,2.9929
1622007949.5654812,3.0625
1622007949.569696,3.1329000000000002
1622007949.5779228,3.1329000000000002
1622007949.5817683,3.0976
1622007949.5897994,3.0625
1622007949.5939395,2.9240999999999997
1622007949.6021001,2.7556
1622007949.6061337,2.6244000000000005
1622007949.6142516,2.4964000000000004
1622007949.6182792,2.2801
1622007949.626689,2.1025
1622007949.631035,2.0164
1622007949.6390855,1.9320999999999997
1622007949.6431084,1.9043999999999996
1622007949.6511552,1.8496000000000004
1622007949.6594625,1.7956000000000003
1622007949.6635983,1.6900000000000002
1622007949.6718392,1.6900000000000002
1622007949.6759872,1.7689000000000001
1622007949.6842813,1.7956000000000003
1622007949.6885037,1.8225000000000002
1622007949.6966267,1.8225000000000002
1622007949.700677,1.7689000000000001
1622007949.709035,1.8225000000000002
1622007949.7131438,1.9043999999999996
1622007949.720843,1.9599999999999997
1622007949.7249997,1.9880999999999998
1622007949.7331717,1.9599999999999997
1622007949.7373173,1.9043999999999996
1622007949.7453182,1.8496000000000004
1622007949.7494466,1.9043999999999996
1622007949.7576723,2.0448999999999997
1622007949.761689,2.2201
1622007949.7700777,2.3104
1622007949.7740445,2.3409
1622007949.782305,2.2201
1622007949.7864141,2.25
1622007949.7947776,2.25
1622007949.8027935,2.3104
1622007949.8069196,2.2801
1622007949.815225,2.25
1622007949.8192987,2.2201
1622007949.827485,2.25
1622007949.8315387,2.1904
1622007949.8399265,2.25
1622007949.8440664,2.25
1622007949.8520744,2.3716
1622007949.856142,2.5921000000000003
1622007949.864223,2.6569
1622007949.8683686,2.6569
1622007949.8765483,2.5600000000000005
1622007949.8805683,2.4649
1622007949.8889213,2.4649
1622007949.893058,2.4336
1622007949.901478,2.3104
1622007949.905591,2.2801
1622007949.9137669,2.3716
1622007949.917586,2.3716
1622007949.9260914,2.2801
1622007949.929921,2.1315999999999997
1622007949.9382997,2.0448999999999997
1622007949.9465313,2.1609
1622007949.9507117,2.9583999999999997
1622007949.9588795,4.928400000000001
1622007949.9627078,8.2944
1622007949.9711847,12.180100000000001
1622007949.9749568,13.838400000000002
1622007949.9831443,11.696399999999999
1622007949.9872258,8.2369
1622007949.9953089,5.1983999999999995
1622007949.9994812,3.24
1622007950.0076861,2.1025
1622007950.0118556,1.5625
1622007950.0198102,1.2995999999999999
1622007950.02395,1.2544000000000002
1622007950.0323076,1.2768999999999997
1622007950.036207,1.2995999999999999
1622007950.0445564,1.3224999999999998
1622007950.0486336,1.4161
1622007950.0568883,1.5876000000000001
1622007950.0609264,1.6900000000000002
1622007950.0691853,1.7689000000000001
1622007950.0732858,1.8225000000000002
1622007950.0814724,1.8769000000000002
1622007950.0855927,1.9599999999999997
1622007950.0938072,2.0736
1622007950.101944,2.1904
1622007950.1060646,2.3104
1622007950.1140053,2.5281000000000002
1622007950.1184216,2.6569
1622007950.1263962,2.6569
1622007950.1305172,2.7224999999999997
1622007950.1386971,2.7556
1622007950.142835,2.7224999999999997
1622007950.1508586,2.7556
1622007950.154926,2.7556
1622007950.1630342,2.7224999999999997
1622007950.1672485,2.7224999999999997
1622007950.175661,2.7224999999999997
1622007950.1796632,2.6895999999999995
1622007950.1879373,2.6244000000000005
1622007950.1920862,2.4649
1622007950.2002814,2.3409
1622007950.2044203,2.1904
1622007950.2125432,2.0448999999999997
1622007950.2166843,1.9320999999999997
1622007950.224856,1.8496000000000004
1622007950.228816,1.8769000000000002
1622007950.2371912,1.8769000000000002
1622007950.2453904,1.8496000000000004
1622007950.2494583,1.8769000000000002
1622007950.2573755,1.9043999999999996
1622007950.4106967,1.8769000000000002
1622007950.4109898,1.9043999999999996
1622007950.4112005,1.9599999999999997
1622007950.4113731,1.9599999999999997
1622007950.4116173,1.9320999999999997
1622007950.4118257,1.9599999999999997
1622007950.4120355,2.0448999999999997
1622007950.412206,2.1025
1622007950.4123702,2.1609
1622007950.4125469,2.1315999999999997
1622007950.4127314,2.1609
1622007950.4128945,2.25
1622007950.4130743,2.3409
1622007950.4132526,2.2801
1622007950.4134238,2.3409
1622007950.4136102,2.3409
1622007950.4137688,2.2801
1622007950.413957,2.25
1622007950.4141204,2.2801
1622007950.4143198,2.2201
1622007950.4144719,2.1315999999999997
1622007950.4146495,2.1025
1622007950.4148633,2.1904
1622007950.4150214,2.3409
1622007950.4152222,2.4649
1622007950.4169285,2.4336
1622007950.4253776,2.4336
1622007950.4296186,2.5281000000000002
1622007950.4376335,2.6244000000000005
1622007950.441991,2.6244000000000005
1622007950.449836,2.5921000000000003
1622007950.4540288,2.5281000000000002
1622007950.4620528,2.4025000000000003
1622007950.4663405,2.3716
1622007950.4750345,2.4336
1622007950.4788034,2.3716
1622007950.487254,2.3104
1622007950.4910042,2.3104
1622007950.499388,2.3409
1622007950.50329,2.2201
1622007950.5115576,2.1025
1622007950.515622,2.1904
1622007950.523697,2.8560999999999996
1622007950.5278172,4.6656
1622007950.5360775,8.0656
1622007950.5439894,12.25
1622007950.5480945,14.5924
1622007950.5563958,12.8881
1622007950.5607553,9.302499999999998
1622007950.5689108,5.9536
1622007950.5727992,3.7636
1622007950.5812182,2.4964000000000004
1622007950.5853457,1.8225000000000002
1622007950.5934923,1.4641
1622007950.5976913,1.3688999999999998
1622007950.6059551,1.2995999999999999
1622007950.6100895,1.3224999999999998
1622007950.6182568,1.3923999999999999
1622007950.6221006,1.4884
1622007950.6304388,1.5625
1622007950.6347198,1.6129
1622007950.642873,1.6900000000000002
1622007950.6466973,1.8225000000000002
1622007950.6548114,1.9599999999999997
1622007950.6589153,2.0448999999999997
1622007950.6670249,2.1025
1622007950.6711788,2.25
1622007950.6792204,2.2801
1622007950.6875188,2.3104
1622007950.6917078,2.4025000000000003
1622007950.700061,2.5281000000000002
1622007950.7039223,2.6244000000000005
1622007950.7122073,2.7556
1622007950.7162082,2.8223999999999996
1622007950.7246628,2.8560999999999996
1622007950.728797,2.8560999999999996
1622007950.7368398,2.8899999999999997
1622007950.740879,2.8560999999999996
1622007950.749313,2.7889
1622007950.7534623,2.6569
1622007950.7615004,2.5600000000000005
1622007950.765737,2.4964000000000004
1622007950.7739134,2.4336
1622007950.7780285,2.2801
1622007950.7858427,2.0736
1622007950.789958,1.9880999999999998
1622007950.7981327,1.9043999999999996
1622007950.8023052,1.8225000000000002
1622007950.8104286,1.7424000000000002
1622007950.8144166,1.6900000000000002
1622007950.8225708,1.6900000000000002
1622007950.8311388,1.8225000000000002
1622007950.834963,1.9599999999999997
1622007950.8432,1.9320999999999997
1622007950.8472025,1.9320999999999997
1622007950.8555586,1.9880999999999998
1622007950.859507,1.9880999999999998
1622007950.8679996,1.9599999999999997
1622007950.872147,1.9880999999999998
1622007950.8803217,2.0164
1622007950.884222,2.0164
1622007950.8925998,2.0736
1622007950.8967557,2.1609
1622007950.9050207,2.2201
1622007950.909095,2.3409
1622007950.9172478,2.3716
1622007950.92117,2.3716
1622007950.929283,2.3409
1622007950.9333527,2.2801
1622007950.941515,2.25
1622007950.9456487,2.1904
1622007950.953913,2.1904
1622007950.9583862,2.2201
1622007950.9664412,2.2801
1622007950.9705124,2.25
1622007950.9786963,2.1904
1622007950.9866006,2.1904
1622007950.9907339,2.25
1622007950.9989133,2.3104
1622007951.0029683,2.2801
1622007951.01135,2.2801
1622007951.0152576,2.3716
1622007951.0234892,2.4649
1622007951.0277715,2.5921000000000003
1622007951.035776,2.6244000000000005
1622007951.039854,2.6569
1622007951.0479436,2.6244000000000005
1622007951.0520868,2.5600000000000005
1622007951.0602722,2.4964000000000004
1622007951.0643365,2.4649
1622007951.0724437,2.4336
1622007951.0765631,2.3409
1622007951.084997,2.1904
1622007951.0887911,2.25
1622007951.0972679,2.2801
1622007951.1013956,2.1609
1622007951.1094694,2.0448999999999997
1622007951.113569,2.25
1622007951.1217818,3.2041
1622007951.1302452,5.3361
1622007951.1343615,9.1204
1622007951.1424885,12.8881
1622007951.1466691,13.838400000000002
1622007951.1548524,11.356900000000001
1622007951.1586592,7.617599999999999
1622007951.1671572,4.752400000000001
1622007951.1709552,3.0976
1622007951.178976,2.1609
1622007951.1831286,1.6129
1622007951.191297,1.3923999999999999
1622007951.1954422,1.3456
1622007951.203545,1.3224999999999998
1622007951.207665,1.3923999999999999
1622007951.2160125,1.4641
1622007951.2199502,1.5129
1622007951.2283297,1.5625
1622007951.2324378,1.7424000000000002
1622007951.2403104,1.8769000000000002
1622007951.2447631,2.0164
1622007951.2528296,2.1609
1622007951.2570386,2.1904
1622007951.2651675,2.1609
1622007951.2690284,2.2201
1622007951.2774065,2.3409
1622007951.2855566,2.4649
1622007951.2896028,2.6895999999999995
1622007951.2977414,2.8223999999999996
1622007951.3018804,2.7889
1622007951.3100934,2.8899999999999997
1622007951.3142023,3.0276
1622007951.3223517,3.0276
1622007951.3265176,2.9583999999999997
1622007951.3346894,2.9583999999999997
1622007951.338842,2.9583999999999997
1622007951.3467813,2.8560999999999996
1622007951.3508677,2.7556
1622007951.3593376,2.6244000000000005
1622007951.363434,2.4649
1622007951.371591,2.3409
1622007951.3755984,2.1904
1622007951.3838053,2.0448999999999997
1622007951.551312,1.9320999999999997
1622007951.5516214,1.9043999999999996
1622007951.5519,1.8496000000000004
1622007951.5521145,1.8225000000000002
1622007951.552363,1.7956000000000003
1622007951.55263,1.7956000000000003
1622007951.5528958,1.7424000000000002
1622007951.5531547,1.7689000000000001
1622007951.553374,1.7956000000000003
1622007951.5536277,1.7956000000000003
1622007951.5538526,1.8225000000000002
1622007951.554102,1.9043999999999996
1622007951.5543113,1.9320999999999997
1622007951.5545313,2.0164
1622007951.5547724,2.1025
1622007951.5550106,2.1025
1622007951.555222,2.1025
1622007951.5554326,2.1904
1622007951.5556862,2.25
1622007951.5559094,2.2801
1622007951.5561833,2.2801
1622007951.5565205,2.25
1622007951.5567713,2.1904
1622007951.5569828,2.2201
1622007951.557184,2.25
1622007951.5573666,2.1904
1622007951.5575547,2.1609
1622007951.5577319,2.2201
1622007951.5640225,2.2201
1622007951.5720217,2.25
1622007951.5761375,2.2801
1622007951.584543,2.3409
1622007951.5886216,2.4025000000000003
1622007951.596956,2.4649
1622007951.6011288,2.4649
1622007951.6091046,2.3409
1622007951.6135333,2.3409
1622007951.6216955,2.4336
1622007951.6258202,2.5281000000000002
1622007951.6339934,2.5281000000000002
1622007951.6381204,2.4025000000000003
1622007951.6467319,2.3104
1622007951.6502492,2.3104
1622007951.6582625,2.3104
1622007951.6624172,2.3716
1622007951.6705904,2.4025000000000003
1622007951.6747303,2.3716
1622007951.6826904,2.3104
1622007951.6867251,2.2801
1622007951.6950183,2.1609
1622007951.6989422,2.0164
1622007951.7072737,2.1904
1622007951.711628,3.1329000000000002
1622007951.7196314,5.3361
1622007951.7278666,8.6436
1622007951.7321086,11.4921
1622007951.7402654,11.4921
1622007951.744424,8.8804
1622007951.7526116,5.8081000000000005
1622007951.756915,3.6481
1622007951.7648363,2.3409
1622007951.7691803,1.6641000000000001
1622007951.7773306,1.3688999999999998
1622007951.7814875,1.2995999999999999
1622007951.7896945,1.4161
1622007951.793561,1.5129
1622007951.8017237,1.5625
1622007951.8058016,1.6384
1622007951.8140063,1.7689000000000001
1622007951.8180745,1.8496000000000004
1622007951.82663,1.9043999999999996
1622007951.830359,1.9880999999999998
1622007951.8389537,2.1025
1622007951.842718,2.25
1622007951.8512585,2.3716
1622007951.8552766,2.4649
1622007951.8632317,2.5600000000000005
1622007951.8713465,2.6244000000000005
1622007951.8756351,2.6244000000000005
1622007951.8837557,2.7224999999999997
1622007951.8879893,2.8899999999999997
1622007951.8959305,3.0976
1622007951.9002833,3.1684
1622007951.908427,3.1329000000000002
1622007951.9122446,3.1684
1622007951.920341,3.2041
1622007951.9245133,3.2041
1622007951.9326758,3.1684
1622007951.936671,3.0625
1622007951.9449296,2.8899999999999997
1622007951.9489844,2.6244000000000005
1622007951.9571404,2.4025000000000003
1622007951.961233,2.2201
1622007951.9696918,2.1025
1622007951.973823,1.9599999999999997
1622007951.9818468,1.8496000000000004
1622007951.9860463,1.7424000000000002
1622007951.9942257,1.7161000000000002
1622007951.9983864,1.6900000000000002
1622007952.0063777,1.6641000000000001
1622007952.0146003,1.6129
1622007952.018624,1.5876000000000001
1622007952.027318,1.6129
1622007952.031109,1.6641000000000001
1622007952.0393987,1.7161000000000002
1622007952.0433595,1.8225000000000002
1622007952.05146,1.8496000000000004
1622007952.0556285,1.8769000000000002
1622007952.0637715,1.8496000000000004
1622007952.067943,1.9043999999999996
1622007952.075946,1.9599999999999997
1622007952.080061,1.9880999999999998
1622007952.0881543,1.9880999999999998
1622007952.0923793,1.9880999999999998
1622007952.1008077,2.0164
1622007952.104575,2.1609
1622007952.1130767,2.3104
1622007952.1168258,2.3716
1622007952.1252694,2.3409
1622007952.1294873,2.3716
1622007952.1376042,2.3104
1622007952.141519,2.25
1622007952.1498084,2.25
1622007952.1537874,2.25
1622007952.162216,2.1904
1622007952.1703327,2.1025
1622007952.174488,2.0736
1622007952.1823509,2.1025
1622007952.1864974,2.1315999999999997
1622007952.1945996,2.1609
1622007952.1989508,2.25
1622007952.207097,2.4025000000000003
1622007952.2112432,2.5281000000000002
1622007952.2194853,2.6244000000000005
1622007952.2235374,2.6244000000000005
1622007952.2318895,2.6244000000000005
1622007952.2358415,2.5281000000000002
1622007952.2440233,2.3716
1622007952.2481308,2.3104
1622007952.2562742,2.2801
1622007952.260333,2.1904
1622007952.2684247,2.1315999999999997
1622007952.2728364,2.1904
1622007952.281003,2.1904
1622007952.2848194,2.0164
1622007952.293083,1.9043999999999996
1622007952.2970645,2.0164
1622007952.3052218,2.7556
1622007952.3134987,4.6656
1622007952.3176432,8.0656
1622007952.3260512,11.902500000000002
1622007952.32999,13.5424
1622007952.3381433,11.7649
1622007952.3426263,8.2369
1622007952.350475,5.2441
1622007952.3544972,3.3124000000000002
1622007952.362664,2.2201
1622007952.366769,1.6384
1622007952.3752093,1.3688999999999998
1622007952.3790617,1.2321000000000002
1622007952.3871703,1.2100000000000002
1622007952.39165,1.2544000000000002
1622007952.399875,1.3456
1622007952.4038324,1.44
1622007952.4122174,1.5625
1622007952.4160872,1.6641000000000001
1622007952.4241605,1.6900000000000002
1622007952.4283442,1.7161000000000002
1622007952.4364948,1.8225000000000002
1622007952.44048,2.0164
1622007952.4486716,2.1904
1622007952.4567833,2.2801
1622007952.4612646,2.3104
1622007952.4694402,2.3104
1622007952.4734778,2.3716
1622007952.4816732,2.4649
1622007952.485845,2.6569
1622007952.4937508,2.7889
1622007952.498031,2.7556
1622007952.5063636,2.7889
1622007952.5103302,2.8899999999999997
1622007952.5183725,2.9583999999999997
1622007952.5225835,2.8560999999999996
1622007952.5311294,2.7889
1622007952.534927,2.7889
1622007952.5432303,2.5921000000000003
1622007952.547144,2.4336
1622007952.5553117,2.3104
1622007952.5594902,2.2201
1622007952.7041066,2.1315999999999997
1622007952.7043736,2.0736
1622007952.7045505,1.9880999999999998
1622007952.7047682,1.8225000000000002
1622007952.704929,1.7956000000000003
1622007952.705106,1.7956000000000003
1622007952.7053041,1.7689000000000001
1622007952.7055035,1.6641000000000001
1622007952.7056537,1.6129
1622007952.7058263,1.6384
1622007952.7060363,1.7689000000000001
1622007952.7062206,1.9599999999999997
1622007952.706385,1.9880999999999998
1622007952.706579,2.0448999999999997
1622007952.7067902,2.0736
1622007952.7069864,2.0448999999999997
1622007952.7072341,2.0736
1622007952.7074206,2.1025
1622007952.7075858,2.1315999999999997
1622007952.707777,2.1025
1622007952.7080069,2.1315999999999997
1622007952.7082415,2.1315999999999997
1622007952.7084692,2.0736
1622007952.7109404,2.1025
1622007952.714953,2.2201
1622007952.7229857,2.3104
1622007952.727027,2.3104
1622007952.7357004,2.3716
1622007952.7397287,2.3409
1622007952.7478127,2.1904
1622007952.755786,2.1315999999999997
1622007952.7601626,2.1609
1622007952.7684834,2.2201
1622007952.77269,2.3409
1622007952.7808387,2.3716
1622007952.7850394,2.3409
1622007952.7931263,2.3409
1622007952.7971873,2.4025000000000003
1622007952.805508,2.4964000000000004
1622007952.8093197,2.4964000000000004
1622007952.8173983,2.3716
1622007952.8215218,2.4025000000000003
1622007952.8297,2.5281000000000002
1622007952.8336987,2.5600000000000005
1622007952.8418138,2.5921000000000003
1622007952.8458638,2.5281000000000002
1622007952.8543663,2.5281000000000002
1622007952.8581586,2.5600000000000005
1622007952.8667753,2.4964000000000004
1622007952.87066,2.4336
1622007952.8788874,2.4025000000000003
1622007952.8831758,2.4025000000000003
1622007952.8911438,2.4025000000000003
1622007952.8993237,2.4336
1622007952.90352,2.3409
1622007952.9118197,2.1609
1622007952.9159455,1.9599999999999997
1622007952.923968,2.0448999999999997
1622007952.9283462,2.9583999999999997
1622007952.9364314,5.2441
1622007952.94066,9.2416
1622007952.948441,13.6161
1622007952.9525132,15.132100000000001
1622007952.9607193,12.96
1622007952.9648612,9.2416
1622007952.9729335,5.8564
1622007952.9770694,3.6481
1622007952.9853814,2.4025000000000003
1622007952.9894435,1.7161000000000002
1622007952.9980488,1.4161
1622007953.0021002,1.2544000000000002
1622007953.0103168,1.2100000000000002
1622007953.0144057,1.2100000000000002
1622007953.0226412,1.2768999999999997
1622007953.0264094,1.4161
1622007953.0346906,1.5625
1622007953.038745,1.6641000000000001
1622007953.0468752,1.6900000000000002
1622007953.0552633,1.7161000000000002
1622007953.0591204,1.7424000000000002
1622007953.0673206,1.8225000000000002
1622007953.0715425,1.9880999999999998
1622007953.0795255,2.0448999999999997
1622007953.0836825,2.0736
1622007953.0918207,2.1609
1622007953.0959365,2.3104
1622007953.1040947,2.4649
1622007953.1081007,2.6244000000000005
1622007953.1164038,2.7889
1622007953.1209023,2.8899999999999997
1622007953.129072,2.9240999999999997
1622007953.1331766,2.9240999999999997
1622007953.1413543,2.8899999999999997
1622007953.1451678,2.7889
1622007953.1536715,2.7889
1622007953.1577926,2.7556
1622007953.165934,2.5921000000000003
1622007953.1699135,2.4336
1622007953.177964,2.3104
1622007953.1820588,2.2201
1622007953.1905978,2.1025
1622007953.198385,2.0164
1622007953.202496,1.9599999999999997
1622007953.211022,1.8769000000000002
1622007953.2148566,1.8225000000000002
1622007953.222875,1.7689000000000001
1622007953.227099,1.7161000000000002
1622007953.2351701,1.7424000000000002
1622007953.2393556,1.7424000000000002
1622007953.2473218,1.8225000000000002
1622007953.251401,1.8225000000000002
1622007953.2598681,1.8225000000000002
1622007953.2639842,1.8496000000000004
1622007953.2720387,1.9043999999999996
1622007953.2763002,1.9880999999999998
1622007953.284248,1.9880999999999998
1622007953.2885907,2.0164
1622007953.296754,2.0448999999999997
1622007953.3009365,2.1025
1622007953.309102,2.1609
1622007953.312995,2.2201
1622007953.3214216,2.25
1622007953.3255231,2.2801
1622007953.3336735,2.25
1622007953.3417282,2.25
1622007953.3459551,2.25
1622007953.3539991,2.3409
1622007953.3581088,2.3716
1622007953.3662472,2.25
1622007953.370397,2.2201
1622007953.3784637,2.1609
1622007953.3825908,2.1904
1622007953.3908334,2.25
1622007953.3950627,2.25
1622007953.4032009,2.2801
1622007953.4072874,2.2201
1622007953.4155805,2.25
1622007953.4198332,2.3104
1622007953.4280195,2.3409
1622007953.4319859,2.3104
1622007953.4403155,2.2801
1622007953.4444473,2.25
1622007953.452627,2.2801
1622007953.456737,2.2201
1622007953.4649463,2.1609
1622007953.4687967,2.1904
1622007953.47724,2.25
1622007953.4811053,2.3716
1622007953.489168,2.4025000000000003
1622007953.497313,2.4964000000000004
1622007953.5014641,2.5921000000000003
1622007953.5096605,2.7556
1622007953.514006,2.7889
1622007953.522251,2.7224999999999997
1622007953.5262575,2.5921000000000003
1622007953.534322,2.5281000000000002
1622007953.5387406,2.3716
1622007953.5465283,2.3409
1622007953.550626,2.3716
1622007953.5592117,2.4025000000000003
1622007953.5629807,2.4025000000000003
1622007953.57123,2.3716
1622007953.5752106,2.25
1622007953.5834353,2.0164
1622007953.5877545,2.0164
1622007953.5958626,2.5281000000000002
1622007953.5998812,4.0
1622007953.6078985,7.1289
1622007953.612044,11.628100000000002
1622007953.620203,14.44
1622007953.624201,13.5424
1622007953.6322722,10.240000000000002
1622007953.6406426,6.708099999999999
1622007953.644921,4.2436
1622007953.653145,2.8560999999999996
1622007953.6571665,2.0736
1622007953.6653857,1.5876000000000001
1622007953.6694381,1.3688999999999998
1622007953.6776981,1.3224999999999998
1622007953.681961,1.2995999999999999
1622007953.6902096,1.3224999999999998
1622007953.6943214,1.44
1622007953.7025037,1.5129
1622007953.706392,1.5876000000000001
1622007953.7146375,1.6900000000000002
1622007953.7186673,1.8496000000000004
1622007953.7271416,1.9599999999999997
1622007953.7309265,2.0164
1622007953.7390008,2.0736
1622007953.743132,2.1025
1622007953.751367,2.1904
1622007953.7554417,2.3716
1622007953.7637808,2.4964000000000004
1622007953.7677832,2.6244000000000005
1622007953.7761524,2.7556
1622007953.7843347,2.8899999999999997
1622007953.7884784,3.0276
1622007953.7966402,3.2041
1622007953.8008075,3.1684
1622007953.8089502,3.0976
1622007953.8128974,3.0625
1622007953.8212423,2.9929
1622007953.8253977,2.8899999999999997
1622007953.8335242,2.7889
1622007953.837645,2.7556
1622007953.8458424,2.5600000000000005
1622007953.8496876,2.2801
1622007953.8577232,2.1609
1622007953.8618689,2.1025
1622007953.869923,1.9599999999999997
1622007953.8739579,1.8496000000000004
1622007953.8822477,1.7424000000000002
1622007953.8862708,1.7161000000000002
1622007953.8946946,1.7161000000000002
1622007953.8989296,1.6900000000000002
1622007954.0316145,1.6384
1622007954.0318553,1.6129
1622007954.0320516,1.6384
1622007954.0322604,1.6641000000000001
1622007954.0324447,1.7689000000000001
1622007954.0326097,1.8769000000000002
1622007954.0328102,1.9320999999999997
1622007954.0330098,1.9880999999999998
1622007954.0331736,2.0164
1622007954.0333805,1.9599999999999997
1622007954.033581,1.9320999999999997
1622007954.033739,2.0164
1622007954.0339108,2.1025
1622007954.0341253,2.1315999999999997
1622007954.0343018,2.1609
1622007954.034482,2.2201
1622007954.0346935,2.1904
1622007954.0348341,2.25
1622007954.0350049,2.3104
1622007954.035187,2.3409
1622007954.0353637,2.3104
1622007954.0376701,2.25
1622007954.0421798,2.1904
1622007954.0504768,2.2201
1622007954.0543115,2.3409
1622007954.0627089,2.3409
1622007954.0670235,2.3409
1622007954.0747643,2.4025000000000003
1622007954.0828686,2.4336
1622007954.0869925,2.4025000000000003
1622007954.0952759,2.4025000000000003
1622007954.0994184,2.3409
1622007954.1077065,2.25
1622007954.1116416,2.2801
1622007954.1200473,2.3104
1622007954.1242507,2.2801
1622007954.1322844,2.3104
1622007954.1363266,2.4025000000000003
1622007954.1444073,2.4964000000000004
1622007954.1485476,2.5281000000000002
1622007954.1567547,2.5281000000000002
1622007954.1607513,2.5921000000000003
1622007954.1688423,2.6569
1622007954.1729379,2.6895999999999995
1622007954.1811986,2.6569
1622007954.1852605,2.5921000000000003
1622007954.193862,2.5921000000000003
1622007954.1979313,2.6244000000000005
1622007954.2060447,2.5921000000000003
1622007954.210214,2.5600000000000005
1622007954.2183576,2.5600000000000005
1622007954.2264435,2.4649
1622007954.230664,2.3409
1622007954.2388117,2.3104
1622007954.2430007,2.2801
1622007954.250945,2.1609
1622007954.255066,2.0448999999999997
1622007954.2632954,2.0448999999999997
1622007954.267409,2.6244000000000005
1622007954.2755153,4.2436
1622007954.2796853,7.2360999999999995
1622007954.287791,10.6276
1622007954.2919421,11.9716
1622007954.300101,10.4329
1622007954.3042135,7.290000000000001
1622007954.3122997,4.5796
1622007954.3166654,2.9929
1622007954.3248596,2.1609
1622007954.32891,1.7424000000000002
1622007954.3371403,1.5376
1622007954.341274,1.4641
1622007954.3492334,1.4641
1622007954.3535213,1.6129
1622007954.3616734,1.7424000000000002
1622007954.3656323,1.7956000000000003
1622007954.3740802,1.8496000000000004
1622007954.3819616,1.8496000000000004
1622007954.3863115,2.0164
1622007954.3945236,2.1904
1622007954.3988483,2.2801
1622007954.4069798,2.3104
1622007954.410796,2.3409
1622007954.4188633,2.4649
1622007954.4230275,2.6569
1622007954.431197,2.7556
1622007954.4352806,2.8223999999999996
1622007954.4433565,2.8899999999999997
1622007954.4474618,2.9583999999999997
1622007954.455711,3.0976
1622007954.4599736,3.24
1622007954.4679477,3.3124000000000002
1622007954.4721792,3.2761
1622007954.4803638,3.2041
1622007954.4842722,3.0976
1622007954.4927695,3.0976
1622007954.4968345,3.0625
1622007954.5048337,2.9583999999999997
1622007954.5091221,2.8223999999999996
1622007954.5173228,2.6569
1622007954.5255404,2.4649
1622007954.5295994,2.1904
1622007954.5378408,2.0448999999999997
1622007954.5418427,1.9599999999999997
1622007954.5499163,1.8225000000000002
1622007954.55403,1.7424000000000002
1622007954.5621784,1.7161000000000002
1622007954.5663288,1.6129
1622007954.5744014,1.5376
1622007954.578611,1.5876000000000001
1622007954.5868723,1.5876000000000001
1622007954.5909803,1.6641000000000001
1622007954.5993845,1.7161000000000002
1622007954.6033378,1.7689000000000001
1622007954.6115763,1.8496000000000004
1622007954.615815,1.9043999999999996
1622007954.6239643,1.9043999999999996
1622007954.6279233,1.8769000000000002
1622007954.6362796,1.9320999999999997
1622007954.6404574,1.9880999999999998
1622007954.6486015,2.1025
1622007954.6527538,2.25
1622007954.66091,2.4025000000000003
1622007954.6690679,2.3716
1622007954.6732137,2.3409
1622007954.6810136,2.3104
1622007954.6851249,2.3104
1622007954.6932817,2.2801
1622007954.6974244,2.2201
1622007954.7054462,2.1904
1622007954.7095304,2.1904
1622007954.7180982,2.25
1622007954.721936,2.2801
1622007954.7300901,2.25
1622007954.7344992,2.3409
1622007954.7426045,2.3716
1622007954.7465637,2.2801
1622007954.7549636,2.1609
1622007954.759192,2.1609
1622007954.767358,2.1609
1622007954.7712243,2.1904
1622007954.7794929,2.2201
1622007954.7834716,2.2801
1622007954.7919745,2.3409
1622007954.7960696,2.3104
1622007954.8042285,2.3104
1622007954.8083866,2.3104
1622007954.8162322,2.3104
1622007954.8243375,2.3104
1622007954.8284862,2.25
1622007954.8365362,2.2201
1622007954.8406641,2.25
1622007954.8488195,2.3104
1622007954.8529468,2.4964000000000004
1622007954.8614264,2.7556
1622007954.8655317,2.8223999999999996
1622007954.8733926,2.7556
1622007954.8778358,2.6244000000000005
1622007954.8859966,2.5600000000000005
1622007954.890132,2.4964000000000004
1622007954.8983145,2.4964000000000004
1622007954.9022987,2.3716
1622007954.910834,2.3104
1622007954.9146078,2.3716
1622007954.9231234,2.3716
1622007954.9268873,2.3104
1622007954.935391,2.2201
1622007954.9393744,2.0448999999999997
1622007954.947308,1.9599999999999997
1622007954.951426,2.3716
1622007954.959611,3.8024999999999998
1622007954.9677727,6.604899999999999
1622007954.9717875,10.6929
1622007954.979957,13.838400000000002
1622007954.984003,13.395600000000002
1622007954.9924295,10.4329
1622007954.9965923,7.0225
1622007955.0047302,4.494400000000001
1622007955.008582,2.8560999999999996
1622007955.0170417,2.1025
1622007955.0211642,1.7424000000000002
1622007955.0292935,1.4884
1622007955.0335784,1.3224999999999998
1622007955.0419004,1.2544000000000002
1622007955.0456784,1.2995999999999999
1622007955.0541701,1.3923999999999999
1622007955.058259,1.5129
1622007955.0664728,1.5376
1622007955.0701418,1.6641000000000001
1622007955.0785058,1.7956000000000003
1622007955.0825942,1.8769000000000002
1622007955.090788,1.9599999999999997
1622007955.0948567,2.0164
1622007955.1029885,2.0736
1622007955.1068919,2.1025
1622007955.1149805,2.2201
1622007955.1233375,2.3104
1622007955.1273992,2.4336
1622007955.1356978,2.5921000000000003
1622007955.1398172,2.6895999999999995
1622007955.148022,2.7224999999999997
1622007955.1521702,2.8899999999999997
1622007955.1604328,3.0625
1622007955.164654,3.0625
1622007955.172791,3.0276
1622007955.176954,3.0276
1622007955.1850533,2.9240999999999997
1622007955.188969,2.6569
1622007955.1973405,2.4964000000000004
1622007955.2015362,2.4649
1622007955.209475,2.4336
1622007955.2135215,2.3716
1622007955.2216465,2.2801
1622007955.2257645,2.1315999999999997
1622007955.233932,1.9880999999999998
1622007955.2380557,1.8496000000000004
1622007955.24608,1.7956000000000003
1622007955.2501867,1.7161000000000002
1622007955.2584913,1.6641000000000001
1622007955.3955884,1.6129
1622007955.3959138,1.6384
1622007955.3961244,1.6900000000000002
1622007955.3963642,1.7689000000000001
1622007955.3965297,1.7689000000000001
1622007955.3967686,1.7689000000000001
1622007955.396979,1.7956000000000003
1622007955.397169,1.8769000000000002
1622007955.3974423,1.9880999999999998
1622007955.3977873,2.1025
1622007955.3980765,2.1904
1622007955.3982644,2.1025
1622007955.3984737,2.0164
1622007955.3987281,2.0164
1622007955.3989365,2.0736
1622007955.3991003,2.1609
1622007955.3993049,2.1609
1622007955.3994665,2.1609
1622007955.399684,2.1904
1622007955.399902,2.1904
1622007955.4000926,2.1609
1622007955.4003358,2.1315999999999997
1622007955.4016762,2.1315999999999997
1622007955.4100869,2.1904
1622007955.4142647,2.25
1622007955.4225073,2.3104
1622007955.4266143,2.3104
1622007955.4348516,2.3409
1622007955.4389186,2.3716
1622007955.4471352,2.2801
1622007955.451134,2.2201
1622007955.4594076,2.25
1622007955.463642,2.3104
1622007955.4717734,2.25
1622007955.4758382,2.1609
1622007955.4841416,2.1315999999999997
1622007955.488277,2.1609
1622007955.4964466,2.2801
1622007955.5002763,2.3409
1622007955.5084138,2.3409
1622007955.5125234,2.4336
1622007955.5205648,2.4336
1622007955.524692,2.3716
1622007955.5328135,2.3716
1622007955.5371797,2.3716
1622007955.5456376,2.3409
1622007955.5494814,2.3104
1622007955.5577307,2.3409
1622007955.566043,2.3104
1622007955.5699263,2.3104
1622007955.5783243,2.3716
1622007955.5822358,2.5281000000000002
1622007955.5907617,2.6244000000000005
1622007955.594866,2.6895999999999995
1622007955.6027966,2.7224999999999997
1622007955.6068606,2.6895999999999995
1622007955.6149216,2.6244000000000005
1622007955.6191096,2.5281000000000002
1622007955.6273122,2.4336
1622007955.6316617,2.4025000000000003
1622007955.639526,2.3716
1622007955.6436336,2.4025000000000003
1622007955.65183,2.4649
1622007955.656013,2.4025000000000003
1622007955.6642032,2.3104
1622007955.6681206,2.0164
1622007955.6765258,1.9043999999999996
1622007955.6806118,2.4025000000000003
1622007955.6888988,4.040099999999999
1622007955.6929326,7.290000000000001
1622007955.70113,11.696399999999999
1622007955.7090755,14.5161
1622007955.7133734,13.5424
1622007955.721542,10.240000000000002
1622007955.725844,6.812099999999999
1622007955.7340322,4.368099999999999
1622007955.7381384,2.9583999999999997
1622007955.7463377,2.0736
1622007955.7504518,1.5129
1622007955.7582288,1.2544000000000002
1622007955.762364,1.1881000000000002
1622007955.7705297,1.2768999999999997
1622007955.7746503,1.3456
1622007955.782636,1.3923999999999999
1622007955.7866678,1.44
1622007955.7949681,1.4884
1622007955.7990763,1.5625
1622007955.807254,1.6384
1622007955.8116279,1.7424000000000002
1622007955.8197443,1.8496000000000004
1622007955.8238676,1.8769000000000002
1622007955.8320675,1.9599999999999997
1622007955.836225,2.1025
1622007955.8443284,2.2201
1622007955.8525617,2.3104
1622007955.856665,2.3716
1622007955.8650243,2.5281000000000002
1622007955.8691344,2.6569
1622007955.8771305,2.7556
1622007955.8815026,2.7889
1622007955.8892603,2.9240999999999997
1622007955.893405,3.1329000000000002
1622007955.9015853,3.1684
1622007955.9057236,3.0976
1622007955.9137049,3.0625
1622007955.9177737,2.9929
1622007955.9260664,2.8560999999999996
1622007955.9301498,2.6244000000000005
1622007955.9386928,2.4025000000000003
1622007955.9425218,2.25
1622007955.9509337,2.1025
1622007955.9547825,1.9880999999999998
1622007955.9632366,1.9043999999999996
1622007955.9669728,1.7689000000000001
1622007955.975281,1.7161000000000002
1622007955.9795046,1.6129
1622007955.9877095,1.4161
1622007955.9917932,1.3456
1622007955.999964,1.3456
1622007956.00816,1.3456
1622007956.0123022,1.44
1622007956.0203907,1.6384
1622007956.0244281,1.7956000000000003
1622007956.032606,1.9599999999999997
1622007956.0367148,2.0736
1622007956.044869,2.1025
1622007956.0488932,2.1315999999999997
1622007956.0570161,2.2201
1622007956.0612457,2.3104
1622007956.0696785,2.3104
1622007956.0735877,2.25
1622007956.0817616,2.1904
1622007956.0860884,2.1315999999999997
1622007956.094217,2.1025
1622007956.0982134,2.1315999999999997
1622007956.1063879,2.1904
1622007956.110563,2.2801
1622007956.1190493,2.3104
1622007956.1232083,2.25
1622007956.1311514,2.2201
1622007956.1350756,2.25
1622007956.1434293,2.2201
1622007956.1517282,2.1904
1622007956.1556559,2.1609
1622007956.163684,2.1609
1622007956.1678386,2.1315999999999997
1622007956.1759887,2.2201
1622007956.180146,2.3716
1622007956.1882224,2.4649
1622007956.1922987,2.4964000000000004
1622007956.2007995,2.4964000000000004
1622007956.2048059,2.4336
1622007956.2130213,2.3716
1622007956.217152,2.3716
1622007956.2253046,2.3409
1622007956.2293506,2.25
1622007956.2376232,2.2801
1622007956.2417226,2.3409
1622007956.249968,2.3716
1622007956.2537553,2.4025000000000003
1622007956.2622395,2.4025000000000003
1622007956.2665029,2.4025000000000003
1622007956.274657,2.4336
1622007956.27849,2.4649
1622007956.2870157,2.4025000000000003
1622007956.294823,2.3104
1622007956.2989616,2.2801
1622007956.3070674,2.3409
1622007956.3111048,2.4336
1622007956.3191965,2.4336
1622007956.3232574,2.4964000000000004
1622007956.331776,2.6244000000000005
1622007956.33587,2.7889
1622007956.3440628,2.7889
1622007956.3481383,2.7889
1622007956.356324,2.7556
1622007956.3604302,2.7556
1622007956.3686304,2.6895999999999995
1622007956.37279,2.5921000000000003
1622007956.3810222,2.4649
1622007956.38512,2.3716
1622007956.3933346,2.2801
1622007956.3974292,2.3104
1622007956.4055254,2.3104
1622007956.4097357,2.25
1622007956.4178936,2.1315999999999997
1622007956.4218354,2.0736
1622007956.4298697,2.4649
1622007956.4340699,3.9204
1622007956.4421048,6.864400000000001
1622007956.450192,10.758399999999998
1622007956.4542851,13.1769
1622007956.4627602,12.320099999999998
1622007956.4667907,9.2416
1622007956.4747968,6.002500000000001
1622007956.4791436,3.6864
1622007956.4871328,2.4336
1622007956.4913616,1.8225000000000002
1622007956.4997187,1.5625
1622007956.5038507,1.3923999999999999
1622007956.5121155,1.2995999999999999
1622007956.5163116,1.3688999999999998
1622007956.5245094,1.4641
1622007956.5286243,1.5129
1622007956.536803,1.6129
1622007956.5409493,1.6641000000000001
1622007956.5487971,1.6900000000000002
1622007956.5529666,1.7956000000000003
1622007956.5610092,1.9320999999999997
1622007956.5650582,2.1315999999999997
1622007956.573164,2.3104
1622007956.577239,2.3716
1622007956.5853834,2.4336
1622007956.5937772,2.5281000000000002
1622007956.597939,2.5921000000000003
1622007956.6060238,2.5921000000000003
1622007956.610317,2.6244000000000005
1622007956.6184978,2.7224999999999997
1622007956.6226451,2.8560999999999996
1622007956.6307068,3.0276
1622007956.634729,3.2041
1622007956.6433043,3.3489000000000004
1622007956.647076,3.3489000000000004
1622007956.655302,3.3856
1622007956.6593924,3.3124000000000002
1622007956.6677995,3.1684
1622007956.6717627,2.9583999999999997
1622007956.6798487,2.6895999999999995
1622007956.8306484,2.4649
1622007956.8309608,2.2201
1622007956.8312154,2.0736
1622007956.8314507,1.9880999999999998
1622007956.8316844,1.8496000000000004
1622007956.8318791,1.7424000000000002
1622007956.8320966,1.7161000000000002
1622007956.8323,1.7424000000000002
1622007956.8324862,1.7689000000000001
1622007956.832654,1.7689000000000001
1622007956.8328903,1.7689000000000001
1622007956.8330925,1.7689000000000001
1622007956.8332613,1.7689000000000001
1622007956.833434,1.7689000000000001
1622007956.8336155,1.7424000000000002
1622007956.8337939,1.7161000000000002
1622007956.8339593,1.7956000000000003
1622007956.8341413,1.8769000000000002
1622007956.8343184,1.9880999999999998
1622007956.8344893,2.0736
1622007956.8346696,2.0448999999999997
1622007956.8348236,2.1315999999999997
1622007956.8350077,2.2201
1622007956.8352077,2.2801
1622007956.8354268,2.4025000000000003
1622007956.8395212,2.4336
1622007956.8478043,2.3716
1622007956.8517218,2.3716
1622007956.860258,2.4025000000000003
1622007956.8643477,2.3716
1622007956.8724356,2.3409
1622007956.876527,2.3104
1622007956.8848658,2.3409
1622007956.8927014,2.4336
1622007956.8968425,2.4336
1622007956.905147,2.3716
1622007956.9093595,2.3409
1622007956.9172113,2.3716
1622007956.9215868,2.4336
1622007956.9298685,2.4336
1622007956.9337082,2.4964000000000004
1622007956.941924,2.4964000000000004
1622007956.9460347,2.4025000000000003
1622007956.954225,2.4025000000000003
1622007956.9583862,2.4025000000000003
1622007956.966909,2.3716
1622007956.9707577,2.3409
1622007956.9792192,2.4025000000000003
1622007956.9829826,2.4964000000000004
1622007956.9913614,2.5921000000000003
1622007956.9952621,2.6569
1622007957.003497,2.6244000000000005
1622007957.0076451,2.5281000000000002
1622007957.01591,2.4964000000000004
1622007957.0198085,2.4649
1622007957.028199,2.4025000000000003
1622007957.0364032,2.4025000000000003
1622007957.0405483,2.4336
1622007957.0486894,2.4964000000000004
1622007957.052562,2.4964000000000004
1622007957.0606568,2.4649
1622007957.0648212,2.4025000000000003
1622007957.0729618,2.4964000000000004
1622007957.0771024,2.6244000000000005
1622007957.0851061,2.7224999999999997
1622007957.0894556,2.7556
1622007957.0979013,2.7889
1622007957.1019797,2.8899999999999997
1622007957.110208,2.9583999999999997
1622007957.1141725,2.9929
1622007957.1226215,2.9583999999999997
1622007957.1263804,2.8223999999999996
1622007957.1349008,2.6895999999999995
1622007957.1386983,2.6244000000000005
1622007957.1471884,2.6244000000000005
1622007957.1509662,2.5921000000000003
1622007957.159335,2.5600000000000005
1622007957.1631947,2.4649
1622007957.171583,2.4649
1622007957.1796293,2.3409
1622007957.1838255,2.1609
1622007957.19178,2.1315999999999997
1622007957.1959734,2.6895999999999995
1622007957.2040687,4.2848999999999995
1622007957.2082264,7.3441
1622007957.2162335,11.902500000000002
1622007957.2203429,15.209999999999999
1622007957.2286494,14.44
1622007957.2326832,11.289599999999998
1622007957.2410662,7.6729
1622007957.2451694,4.928400000000001
1622007957.2533696,3.3856
1622007957.25728,2.3716
1622007957.2657208,1.7956000000000003
1622007957.2696652,1.44
1622007957.278184,1.2544000000000002
1622007957.2820032,1.2100000000000002
1622007957.2905838,1.2100000000000002
1622007957.2943017,1.2995999999999999
1622007957.3028972,1.4641
1622007957.3066573,1.6641000000000001
1622007957.3149157,1.8225000000000002
1622007957.318926,1.9320999999999997
1622007957.327039,1.9599999999999997
1622007957.3352115,1.9880999999999998
1622007957.3392987,2.0448999999999997
1622007957.347466,2.1025
1622007957.3515046,2.1609
1622007957.3595116,2.3409
1622007957.3639371,2.4649
1622007957.3721476,2.6244000000000005
1622007957.3762891,2.7556
1622007957.3842585,2.9929
1622007957.3882012,3.1329000000000002
1622007957.396461,3.24
1622007957.400506,3.24
1622007957.4086514,3.2041
1622007957.4127607,3.1684
1622007957.4209578,3.1329000000000002
1622007957.4250445,3.1329000000000002
1622007957.4332635,3.0276
1622007957.4373507,2.8899999999999997
1622007957.4455438,2.7224999999999997
1622007957.449672,2.6569
1622007957.4577954,2.5921000000000003
1622007957.4619694,2.3716
1622007957.4701552,2.0736
1622007957.4783285,1.9599999999999997
1622007957.482473,1.9043999999999996
1622007957.4905784,1.8225000000000002
1622007957.494675,1.7424000000000002
1622007957.502893,1.6641000000000001
1622007957.506996,1.6900000000000002
1622007957.5151737,1.7424000000000002
1622007957.519261,1.8225000000000002
1622007957.5274682,1.8769000000000002
1622007957.5315685,1.9320999999999997
1622007957.5397332,1.9599999999999997
1622007957.5438488,1.9320999999999997
1622007957.5520234,1.8769000000000002
1622007957.5561414,1.8496000000000004
1622007957.5643194,1.9599999999999997
1622007957.5685115,1.9880999999999998
1622007957.5766134,2.0164
1622007957.580711,2.0736
1622007957.588901,2.1609
1622007957.592997,2.3104
1622007957.6016488,2.3716
1622007957.6056266,2.3409
1622007957.6137106,2.3104
1622007957.6217813,2.3104
1622007957.6262076,2.25
1622007957.634319,2.1609
1622007957.6385024,2.1609
1622007957.6463647,2.1904
1622007957.6507375,2.2201
1622007957.6586804,2.3104
1622007957.6631446,2.4336
1622007957.671138,2.4336
1622007957.6751962,2.4025000000000003
1622007957.6834269,2.4336
1622007957.6874862,2.3716
1622007957.6958485,2.3104
1622007957.699771,2.2801
1622007957.70787,2.3104
1622007957.7120135,2.4025000000000003
1622007957.7201798,2.5600000000000005
1622007957.72431,2.5921000000000003
1622007957.7322388,2.5281000000000002
1622007957.7366202,2.5281000000000002
1622007957.7451236,2.4964000000000004
1622007957.7489717,2.4025000000000003
1622007957.7573998,2.4025000000000003
1622007957.7615178,2.4964000000000004
1622007957.7696862,2.5281000000000002
1622007957.7778485,2.5281000000000002
1622007957.78186,2.4964000000000004
1622007957.7901578,2.4336
1622007957.794232,2.4649
1622007957.8022432,2.4649
1622007957.8066163,2.4649
1622007957.8147502,2.4964000000000004
1622007957.8189006,2.5600000000000005
1622007957.8267915,2.4964000000000004
1622007957.830952,2.4964000000000004
1622007957.8389647,2.4964000000000004
1622007957.8431025,2.4964000000000004
1622007957.8512948,2.4964000000000004
1622007957.8553464,2.4964000000000004
1622007957.8633869,2.4964000000000004
1622007957.86757,2.4964000000000004
1622007957.8756933,2.6244000000000005
1622007957.880107,2.7889
1622007957.888255,2.8223999999999996
1622007957.892075,2.7556
1622007957.9005322,2.7224999999999997
1622007957.9046335,2.6895999999999995
1622007957.91271,2.5281000000000002
1622007957.9210212,2.4649
1622007957.9251378,2.4964000000000004
1622007957.9330676,2.4964000000000004
1622007957.9374056,2.4649
1622007957.945664,2.4649
1622007957.94975,2.4649
1622007957.9578,2.4964000000000004
1622007957.962225,2.4025000000000003
1622007957.9700735,2.2801
1622007957.9741619,2.4025000000000003
1622007957.9822705,3.1684
1622007957.9865718,5.017600000000001
1622007957.994706,8.179599999999999
1622007957.9986243,11.2225
1622007958.006673,11.9716
1622007958.0109127,9.9225
1622007958.0191784,6.916899999999999
1622007958.0232706,4.4521
1622007958.0315015,2.9240999999999997
1622007958.0356195,2.1315999999999997
1622007958.0437984,1.7424000000000002
1622007958.0478058,1.5376
1622007958.0561569,1.5129
1622007958.0641775,1.5625
1622007958.068153,1.5625
1622007958.0766554,1.6641000000000001
1622007958.080814,1.7689000000000001
1622007958.0891047,1.8769000000000002
1622007958.0932565,1.9599999999999997
1622007958.1013515,2.0164
1622007958.1052556,2.0736
1622007958.113362,2.2201
1622007958.1174912,2.3104
1622007958.1256356,2.3716
1622007958.1297626,2.4649
1622007958.1377869,2.5281000000000002
1622007958.1419458,2.6569
1622007958.1503544,2.8223999999999996
1622007958.1545758,2.9929
1622007958.1627011,3.1684
1622007958.1666384,3.2761
1622007958.17506,3.4596000000000005
1622007958.1791375,3.6481
1622007958.1869335,3.7249
1622007958.191144,3.6481
1622007958.1991918,3.5343999999999998
1622007958.2035396,3.4225000000000003
1622007958.2117145,3.3124000000000002
1622007958.2197888,3.1329000000000002
1622007958.2240784,2.9583999999999997
1622007958.2322774,2.7224999999999997
1622007958.2362015,2.5281000000000002
1622007958.2443585,2.3409
1622007958.2485561,2.1904
1622007958.2567115,2.1025
1622007958.2608433,2.0164
1622007958.2689915,1.8769000000000002
1622007958.402783,1.7689000000000001
1622007958.4031081,1.6384
1622007958.4034045,1.5129
1622007958.4036334,1.4884
1622007958.4038696,1.5129
1622007958.404101,1.5376
1622007958.4044542,1.5876000000000001
1622007958.4047217,1.6900000000000002
1622007958.4049492,1.7161000000000002
1622007958.4051433,1.6384
1622007958.4054039,1.6900000000000002
1622007958.405618,1.7689000000000001
1622007958.405826,1.8225000000000002
1622007958.4060116,1.9320999999999997
1622007958.4062445,2.0736
1622007958.4064326,2.0164
1622007958.4066281,1.9880999999999998
1622007958.4068575,1.9880999999999998
1622007958.4070506,2.1025
1622007958.4072485,2.2201
1622007958.4074416,2.3409
1622007958.4076355,2.2801
1622007958.4123871,2.1025
1622007958.4166522,2.0736
1622007958.424849,2.1609
1622007958.4287722,2.2801
1622007958.4370394,2.4336
1622007958.441275,2.4336
1622007958.4494257,2.2801
1622007958.4535134,2.1904
1622007958.461659,2.1315999999999997
1622007958.4658008,2.1315999999999997
1622007958.4740674,2.1315999999999997
1622007958.4781585,2.1609
1622007958.4862502,2.1609
1622007958.4904764,2.2201
1622007958.4986413,2.2201
1622007958.5065813,2.2801
1622007958.51073,2.3104
1622007958.5189006,2.3716
1622007958.5230114,2.3716
1622007958.530967,2.3104
1622007958.5351055,2.2201
1622007958.543249,2.25
1622007958.5476427,2.2801
1622007958.5558093,2.2801
1622007958.559634,2.3104
1622007958.5681212,2.3409
1622007958.5721838,2.3409
1622007958.5802743,2.4336
1622007958.5845292,2.4964000000000004
1622007958.5928001,2.4649
1622007958.596882,2.4964000000000004
1622007958.6050684,2.5921000000000003
1622007958.6091053,2.6569
1622007958.6175935,2.7556
1622007958.6216698,2.7889
1622007958.6297832,2.6569
1622007958.6336966,2.5600000000000005
1622007958.6422133,2.4649
1622007958.6459317,2.4336
1622007958.6540463,2.3716
1622007958.662076,2.3409
1622007958.6662395,2.2801
1622007958.674331,2.2201
1622007958.6785061,2.25
1622007958.686773,2.1315999999999997
1622007958.6908765,1.9599999999999997
1622007958.69893,2.1904
1622007958.7031987,3.1684
1622007958.711251,5.475599999999999
1622007958.7155566,9.1204
1622007958.7237031,12.460899999999999
1622007958.7277207,12.7449
1622007958.7361047,10.240000000000002
1622007958.7402375,6.864400000000001
1622007958.748309,4.2436
1622007958.7525282,2.7556
1622007958.7606728,2.0164
1622007958.7648292,1.6641000000000001
1622007958.7729487,1.5129
1622007958.7768514,1.5129
1622007958.784993,1.5129
1622007958.7891717,1.5376
1622007958.7972066,1.5625
1622007958.8053772,1.5876000000000001
1622007958.8095274,1.6641000000000001
1622007958.818,1.7424000000000002
1622007958.8222148,1.8225000000000002
1622007958.829925,1.8769000000000002
1622007958.834386,1.9599999999999997
1622007958.8426008,2.1025
1622007958.846724,2.1904
1622007958.8545816,2.2201
1622007958.8587554,2.2801
1622007958.8671534,2.4336
1622007958.8710976,2.5921000000000003
1622007958.879421,2.7889
1622007958.8836842,2.8899999999999997
1622007958.8918788,3.0276
1622007958.8957696,3.2041
1622007958.903896,3.3124000000000002
1622007958.9080744,3.2761
1622007958.916222,3.2761
1622007958.9202514,3.2761
1622007958.9282138,3.24
1622007958.9327743,3.1329000000000002
1622007958.9409666,3.0276
1622007958.9450963,2.8223999999999996
1622007958.953234,2.6569
1622007958.961357,2.4336
1622007958.9654877,2.2201
1622007958.9735987,2.0736
1622007958.9776375,1.9880999999999998
1622007958.985752,1.9043999999999996
1622007958.9901445,1.8496000000000004
1622007958.998098,1.7689000000000001
1622007959.0023012,1.7161000000000002
1622007959.010699,1.6384
1622007959.014598,1.5876000000000001
1622007959.0231383,1.6641000000000001
1622007959.026912,1.7161000000000002
1622007959.035,1.7424000000000002
1622007959.0390368,1.8225000000000002
1622007959.0472665,1.8496000000000004
1622007959.0514092,1.8769000000000002
1622007959.059451,1.9043999999999996
1622007959.063566,1.9320999999999997
1622007959.0719323,1.9043999999999996
1622007959.0759335,1.9043999999999996
1622007959.0842385,1.9320999999999997
1622007959.0880837,1.9599999999999997
1622007959.0962846,2.0448999999999997
1622007959.1046827,2.1609
1622007959.1088939,2.25
1622007959.1171024,2.25
1622007959.1212487,2.2801
1622007959.1293023,2.2201
1622007959.133575,2.25
1622007959.1417058,2.2201
1622007959.1459336,2.25
1622007959.1541245,2.2201
1622007959.158081,2.2201
1622007959.1660583,2.3104
1622007959.170135,2.2801
1622007959.1783178,2.2201
1622007959.1824973,2.2801
1622007959.1906364,2.2201
1622007959.1946223,2.2201
1622007959.2028623,2.25
1622007959.2069445,2.2801
1622007959.2150989,2.3104
1622007959.2194366,2.2801
1622007959.2273898,2.2801
1622007959.2316813,2.2801
1622007959.239885,2.3716
1622007959.2480555,2.4336
1622007959.2521775,2.4649
1622007959.260365,2.4336
1622007959.2645228,2.4025000000000003
1622007959.2728467,2.3409
1622007959.2770784,2.3409
1622007959.285166,2.3409
1622007959.2892666,2.3104
1622007959.2974272,2.3409
1622007959.3012285,2.3716
1622007959.3093348,2.4025000000000003
1622007959.3135042,2.4964000000000004
1622007959.3216696,2.5921000000000003
1622007959.3257828,2.6569
1622007959.333817,2.7889
1622007959.3379319,2.7889
1622007959.346413,2.7224999999999997
1622007959.3502882,2.6244000000000005
1622007959.3587437,2.5921000000000003
1622007959.3626544,2.5281000000000002
1622007959.3710773,2.5281000000000002
1622007959.374894,2.4964000000000004
1622007959.3829064,2.4964000000000004
1622007959.3870926,2.4964000000000004
1622007959.3955345,2.4336
1622007959.4036326,2.25
1622007959.4076872,2.0164
1622007959.4161248,2.0164
1622007959.4202852,2.5921000000000003
1622007959.4282446,4.2436
1622007959.4323273,7.507600000000001
1622007959.4404187,12.25
1622007959.4445565,15.132100000000001
1622007959.4527159,13.987600000000002
1622007959.457164,10.497600000000002
1622007959.4652677,6.916899999999999
1622007959.4692514,4.368099999999999
1622007959.477654,2.9929
1622007959.481471,2.25
1622007959.4900463,1.6900000000000002
1622007959.4940624,1.3688999999999998
1622007959.502236,1.2995999999999999
1622007959.5062807,1.2995999999999999
1622007959.514313,1.2995999999999999
1622007959.5187008,1.3456
1622007959.526673,1.3923999999999999
1622007959.5306618,1.4161
1622007959.5391562,1.5129
1622007959.5470839,1.6129
1622007959.5511065,1.7161000000000002
1622007959.5591683,1.8496000000000004
1622007959.5633428,1.9320999999999997
1622007959.5713542,2.0448999999999997
1622007959.5755057,2.1315999999999997
1622007959.583701,2.2801
1622007959.5880394,2.3409
1622007959.5961652,2.4649
1622007959.6002672,2.5921000000000003
1622007959.6084468,2.6895999999999995
1622007959.6125824,2.7889
1622007959.620771,2.9929
1622007959.624884,3.1684
1622007959.632815,3.2041
1622007959.6371613,3.24
1622007959.6450417,3.2761
1622007959.649277,3.1684
1622007959.657732,3.0625
1622007959.661781,2.9583999999999997
1622007959.6699667,2.7889
1622007959.6739619,2.6895999999999995
1622007959.804393,2.4964000000000004
1622007959.8046963,2.2801
1622007959.8049247,2.1025
1622007959.8050933,1.9880999999999998
1622007959.805267,1.8769000000000002
1622007959.8054216,1.7689000000000001
1622007959.8056343,1.7161000000000002
1622007959.8058133,1.6900000000000002
1622007959.8060067,1.6641000000000001
1622007959.8062136,1.6641000000000001
1622007959.8063927,1.6641000000000001
1622007959.8065677,1.6384
1622007959.806734,1.6641000000000001
1622007959.8069286,1.7424000000000002
1622007959.8070858,1.8496000000000004
1622007959.8072436,1.8496000000000004
1622007959.8074155,1.8769000000000002
1622007959.8075612,1.8496000000000004
1622007959.8077166,1.8769000000000002
1622007959.8078618,1.9599999999999997
1622007959.8080075,2.0448999999999997
1622007959.812991,2.1025
1622007959.81725,2.1315999999999997
1622007959.8252006,2.1609
1622007959.829589,2.2201
1622007959.8379903,2.2801
1622007959.846078,2.25
1622007959.8502018,2.1904
1622007959.8581622,2.1609
1622007959.8624458,2.1609
1622007959.8706934,2.1315999999999997
1622007959.8749156,2.0736
1622007959.8828113,2.1025
1622007959.8870637,2.1609
1622007959.8951168,2.1315999999999997
1622007959.899269,2.1609
1622007959.9074006,2.2201
1622007959.9116435,2.3104
1622007959.9196556,2.2801
1622007959.9238036,2.2801
1622007959.9320238,2.2201
1622007959.9360967,2.1609
1622007959.9443116,2.25
1622007959.9484537,2.2801
1622007959.9566262,2.3104
1622007959.9607143,2.3409
1622007959.9691966,2.3409
1622007959.9729688,2.3409
1622007959.98145,2.3409
1622007959.9893825,2.3409
1622007959.9934542,2.3409
1622007960.0016396,2.3716
1622007960.0060763,2.4336
1622007960.0138886,2.4336
1622007960.0181339,2.4336
1622007960.0262015,2.4964000000000004
1622007960.0303009,2.5281000000000002
1622007960.0388482,2.4649
1622007960.042677,2.4964000000000004
1622007960.0508494,2.4964000000000004
1622007960.0548997,2.5281000000000002
1622007960.0629811,2.5921000000000003
1622007960.0672548,2.5921000000000003
1622007960.0754235,2.6569
1622007960.0793476,2.7224999999999997
1622007960.0874867,2.6244000000000005
1622007960.091628,2.4025000000000003
1622007960.1000721,2.3409
1622007960.1041873,2.3409
1622007960.11232,2.3409
1622007960.116401,2.4025000000000003
1622007960.1245747,2.3716
1622007960.1328018,2.1609
1622007960.136801,1.9599999999999997
1622007960.1450155,1.9043999999999996
1622007960.1491766,2.3409
1622007960.1573725,3.6864
1622007960.1615083,6.708099999999999
1622007960.169718,11.0889
1622007960.1740189,14.3641
1622007960.1819193,13.7641
1622007960.1863065,10.4329
1622007960.1941247,6.969600000000001
1622007960.1982908,4.368099999999999
1622007960.2064314,2.8223999999999996
1622007960.2106447,1.9599999999999997
1622007960.2185295,1.5376
1622007960.2226398,1.3688999999999998
1622007960.23089,1.2995999999999999
1622007960.2349231,1.2995999999999999
1622007960.2431045,1.3923999999999999
1622007960.247495,1.4884
1622007960.2556074,1.5625
1622007960.2597978,1.6129
1622007960.2679667,1.6900000000000002
1622007960.272071,1.8496000000000004
1622007960.2802072,2.0448999999999997
1622007960.2884297,2.0448999999999997
1622007960.2924495,1.9880999999999998
1622007960.3005965,2.0448999999999997
1622007960.3045182,2.1904
1622007960.312986,2.25
1622007960.3169646,2.4336
1622007960.3252165,2.5921000000000003
1622007960.3293161,2.7224999999999997
1622007960.3374639,2.9240999999999997
1622007960.3416092,3.1329000000000002
1622007960.3497503,3.24
1622007960.3537948,3.4225000000000003
1622007960.3618996,3.4596000000000005
1622007960.3660805,3.4596000000000005
1622007960.374279,3.3489000000000004
1622007960.378312,3.24
1622007960.3869174,3.0976
1622007960.3909183,2.8899999999999997
1622007960.3991876,2.6895999999999995
1622007960.4032834,2.5921000000000003
1622007960.4112115,2.4649
1622007960.4153652,2.3104
1622007960.4234202,2.1609
1622007960.4316406,1.9599999999999997
1622007960.4357052,1.8225000000000002
1622007960.4440928,1.7161000000000002
1622007960.4483056,1.6129
1622007960.4565325,1.5625
1622007960.4606874,1.5625
1622007960.4685476,1.5376
1622007960.4727206,1.5376
1622007960.4807951,1.5876000000000001
1622007960.4848225,1.6641000000000001
1622007960.4933648,1.7161000000000002
1622007960.4971995,1.7161000000000002
1622007960.5057454,1.7424000000000002
1622007960.5097947,1.7689000000000001
1622007960.5178127,1.7956000000000003
1622007960.5221527,1.9043999999999996
1622007960.53024,1.9599999999999997
1622007960.5343335,1.9599999999999997
1622007960.542511,1.9599999999999997
1622007960.5467432,1.9880999999999998
1622007960.5549598,1.9880999999999998
1622007960.5588298,2.0448999999999997
1622007960.5668888,2.0736
1622007960.57522,2.1025
1622007960.5791512,2.1609
1622007960.5872753,2.2201
1622007960.5914035,2.3409
1622007960.599429,2.3409
1622007960.6035075,2.2801
1622007960.611786,2.1904
1622007960.6160629,2.2201
1622007960.6239119,2.2801
1622007960.6283739,2.3104
1622007960.6363976,2.3409
1622007960.6407478,2.3409
1622007960.6488373,2.2801
1622007960.652926,2.2801
1622007960.6611166,2.3409
1622007960.6652126,2.3409
1622007960.6733289,2.25
1622007960.6775336,2.2201
1622007960.6858156,2.3104
1622007960.689731,2.3716
1622007960.6980186,2.3409
1622007960.7020986,2.3104
1622007960.7103317,2.3716
1622007960.7143404,2.4964000000000004
1622007960.7224834,2.4649
1622007960.7306294,2.4025000000000003
1622007960.7345004,2.3716
1622007960.742685,2.4336
1622007960.7467546,2.4964000000000004
1622007960.7552538,2.6244000000000005
1622007960.7592473,2.6895999999999995
1622007960.7673066,2.6895999999999995
1622007960.771716,2.5921000000000003
1622007960.7796104,2.4336
1622007960.7839775,2.3104
1622007960.792165,2.25
1622007960.7963598,2.3409
1622007960.8045197,2.4964000000000004
1622007960.8085413,2.5600000000000005
1622007960.8170207,2.5921000000000003
1622007960.8211174,2.5600000000000005
1622007960.8292954,2.4964000000000004
1622007960.8334286,2.2801
1622007960.8413956,2.0736
1622007960.8453727,2.1904
1622007960.8535368,2.9240999999999997
1622007960.8575895,4.7961
1622007960.8656273,7.896100000000001
1622007960.8742065,10.956100000000001
1622007960.8779988,11.559999999999999
1622007960.8865032,9.5481
1622007960.8903227,6.604899999999999
1622007960.8985536,4.2025
1622007960.9026523,2.6895999999999995
1622007960.9107957,1.9320999999999997
1622007960.914929,1.5625
1622007960.9233904,1.44
1622007960.9273996,1.4641
1622007960.9357057,1.4884
1622007960.9398313,1.5876000000000001
1622007960.9478278,1.7161000000000002
1622007960.95215,1.8225000000000002
1622007960.9603417,1.9043999999999996
1622007960.9641557,2.0736
1622007960.972322,2.1904
1622007960.9764152,2.2801
1622007960.9846253,2.3409
1622007960.9887068,2.2801
1622007960.996877,2.2801
1622007961.0008953,2.3716
1622007961.0090075,2.4964000000000004
1622007961.0172153,2.5921000000000003
1622007961.0215673,2.7889
1622007961.029818,2.9240999999999997
1622007961.033942,3.0276
1622007961.0421138,3.2041
1622007961.046228,3.4225000000000003
1622007961.0545795,3.5343999999999998
1622007961.058378,3.61
1622007961.066676,3.6864
1622007961.0707784,3.6864
1622007961.0792336,3.6481
1622007961.082961,3.4596000000000005
1622007961.0911956,3.3124000000000002
1622007961.0952811,3.0625
1622007961.1035137,2.8560999999999996
1622007961.1075282,2.5600000000000005
1622007961.1156435,2.3716
1622007961.1198137,2.1904
1622007961.127974,2.0448999999999997
1622007961.1321137,1.8496000000000004
1622007961.140131,1.7161000000000002
1622007961.1442437,1.6384
1622007961.1526613,1.5376
1622007961.156622,1.5376
1622007961.2887745,1.5625
1622007961.2890444,1.5376
1622007961.289245,1.5376
1622007961.2894037,1.5625
1622007961.2896423,1.5625
1622007961.289793,1.6900000000000002
1622007961.290006,1.7956000000000003
1622007961.290168,1.7424000000000002
1622007961.2903414,1.7161000000000002
1622007961.2905037,1.8225000000000002
1622007961.2907474,1.9043999999999996
1622007961.2909458,1.9320999999999997
1622007961.2911375,1.9880999999999998
1622007961.291351,2.0736
1622007961.291524,2.0736
1622007961.2917259,2.1025
1622007961.2918952,2.1315999999999997
1622007961.2921143,2.1315999999999997
1622007961.2922785,2.1904
1622007961.2924392,2.25
1622007961.292611,2.2801
1622007961.295655,2.2801
1622007961.300003,2.2201
1622007961.3081586,2.1315999999999997
1622007961.316509,2.1315999999999997
1622007961.3205543,2.1609
1622007961.3288007,2.2201
1622007961.3329186,2.2801
1622007961.3410125,2.25
1622007961.3451498,2.1904
1622007961.3532739,2.0448999999999997
1622007961.3574429,2.0164
1622007961.3657842,2.1025
1622007961.3697438,2.1904
1622007961.3781476,2.25
1622007961.3819194,2.2801
1622007961.3901858,2.2801
1622007961.3943486,2.2201
1622007961.4023297,2.2801
1622007961.4064586,2.25
1622007961.4146988,2.2201
1622007961.4186447,2.2801
1622007961.4267402,2.4025000000000003
1622007961.4308898,2.5281000000000002
1622007961.4390368,2.5600000000000005
1622007961.4432352,2.5600000000000005
1622007961.4513397,2.5281000000000002
1622007961.4596999,2.4964000000000004
1622007961.4638672,2.4649
1622007961.4720478,2.4336
1622007961.476035,2.4025000000000003
1622007961.4844348,2.4336
1622007961.4883933,2.4025000000000003
1622007961.496659,2.3409
1622007961.5007584,2.2801
1622007961.508945,2.1609
1622007961.5129943,1.9880999999999998
1622007961.5212064,1.9043999999999996
1622007961.5256488,2.0736
1622007961.5335622,2.8899999999999997
1622007961.5376134,4.9729
1622007961.5457733,8.584900000000001
1622007961.5499225,12.25
1622007961.5580044,13.1769
1622007961.5620832,10.889999999999999
1622007961.5701635,7.5625
1622007961.574253,4.7961
1622007961.5824244,3.0625
1622007961.5865848,2.0736
1622007961.594816,1.5625
1622007961.5988843,1.3688999999999998
1622007961.6072772,1.2768999999999997
1622007961.6152785,1.2321000000000002
1622007961.6193337,1.2544000000000002
1622007961.6277616,1.3688999999999998
1622007961.6318367,1.4884
1622007961.6400652,1.5625
1622007961.644186,1.6641000000000001
1622007961.652483,1.7424000000000002
1622007961.6566305,1.8225000000000002
1622007961.6648457,1.9043999999999996
1622007961.6687016,1.9880999999999998
1622007961.6768064,2.0448999999999997
1622007961.6810188,2.1609
1622007961.6890724,2.2201
1622007961.693077,2.25
1622007961.7012138,2.4649
1622007961.7053628,2.7224999999999997
1622007961.7135503,2.8560999999999996
1622007961.7179585,2.9929
1622007961.7258768,3.0976
1622007961.7300036,3.1684
1622007961.738161,3.24
1622007961.7423003,3.3124000000000002
1622007961.7506723,3.3124000000000002
1622007961.758877,3.2041
1622007961.762988,3.0625
1622007961.771124,2.8560999999999996
1622007961.7751868,2.6244000000000005
1622007961.7834084,2.5281000000000002
1622007961.7876499,2.3716
1622007961.7957819,2.1609
1622007961.7997327,2.0164
1622007961.8078005,1.9043999999999996
1622007961.8119586,1.8496000000000004
1622007961.8201165,1.8769000000000002
1622007961.824242,1.8769000000000002
1622007961.8322732,1.8496000000000004
1622007961.8364549,1.7689000000000001
1622007961.8447852,1.7689000000000001
1622007961.848746,1.7956000000000003
1622007961.8569112,1.8496000000000004
1622007961.8613234,1.8496000000000004
1622007961.869388,1.7956000000000003
1622007961.8733227,1.7689000000000001
1622007961.8817291,1.8496000000000004
1622007961.8858588,1.9320999999999997
1622007961.8940265,1.9599999999999997
1622007961.902187,1.9880999999999998
1622007961.9063299,2.1025
1622007961.9143262,2.1609
1622007961.9186866,2.1609
1622007961.9270532,2.25
1622007961.9308615,2.2201
1622007961.9388893,2.1904
1622007961.9429834,2.1609
1622007961.951176,2.1609
1622007961.9553285,2.1609
1622007961.9633548,2.2201
1622007961.9675314,2.1904
1622007961.975948,2.1315999999999997
1622007961.9797995,2.1904
1622007961.988216,2.25
1622007961.9923606,2.25
1622007962.0004764,2.2801
1622007962.0045602,2.3104
1622007962.0127244,2.2801
1622007962.0169287,2.2801
1622007962.0251262,2.3104
1622007962.0289721,2.3104
1622007962.0374644,2.3104
1622007962.041616,2.3104
1622007962.0497344,2.3409
1622007962.0579069,2.2801
1622007962.062015,2.25
1622007962.0702245,2.25
1622007962.0741396,2.25
1622007962.0823014,2.25
1622007962.0864584,2.1609
1622007962.0946205,2.1609
1622007962.0987487,2.2201
1622007962.106696,2.3104
1622007962.1109047,2.4336
1622007962.1190631,2.5281000000000002
1622007962.1232653,2.6569
1622007962.131482,2.7224999999999997
1622007962.1356184,2.6569
1622007962.1438096,2.5921000000000003
1622007962.147934,2.4964000000000004
1622007962.156111,2.4649
1622007962.160236,2.4649
1622007962.1683533,2.4025000000000003
1622007962.1723394,2.2801
1622007962.1807683,2.1904
1622007962.1848826,2.1609
1622007962.193054,2.1609
1622007962.2012029,2.0736
1622007962.205069,2.0164
1622007962.2131433,2.2801
1622007962.217309,3.4225000000000003
1622007962.2254598,6.002500000000001
1622007962.229647,10.1761
1622007962.2381105,14.0625
1622007962.241972,14.822500000000002
1622007962.250366,11.902500000000002
1622007962.2545753,8.0656
1622007962.2628646,5.107599999999999
1622007962.2667606,3.24
1622007962.2752295,2.25
1622007962.2789886,1.7161000000000002
1622007962.2871609,1.4641
1622007962.2912598,1.3688999999999998
1622007962.2995436,1.3456
1622007962.3037589,1.3923999999999999
1622007962.3118067,1.3923999999999999
1622007962.3158848,1.3456
1622007962.3242338,1.3923999999999999
1622007962.3281298,1.44
1622007962.3362384,1.4641
1622007962.3444204,1.4884
1622007962.3485496,1.6129
1622007962.356581,1.7956000000000003
1622007962.3606992,1.9880999999999998
1622007962.3691766,2.0736
1622007962.373018,2.1904
1622007962.3811095,2.3716
1622007962.3852804,2.5281000000000002
1622007962.3937714,2.5600000000000005
1622007962.3977365,2.5600000000000005
1622007962.4059317,2.6244000000000005
1622007962.410329,2.7224999999999997
1622007962.4183066,2.8223999999999996
1622007962.422699,2.9240999999999997
1622007962.43077,3.0625
1622007962.4347067,3.0976
1622007962.4431489,3.0976
1622007962.4469383,3.0625
1622007962.4554257,2.9240999999999997
1622007962.4592566,2.7889
1622007962.4673326,2.6895999999999995
1622007962.471444,2.4964000000000004
1622007962.6048372,2.2201
1622007962.6051927,1.9320999999999997
1622007962.6054904,1.7689000000000001
1622007962.6057892,1.6641000000000001
1622007962.6060283,1.5625
1622007962.606306,1.5129
1622007962.6065822,1.44
1622007962.6068807,1.4884
1622007962.6071222,1.5876000000000001
1622007962.6073418,1.6129
1622007962.6076365,1.6129
1622007962.6078978,1.6641000000000001
1622007962.6081228,1.6900000000000002
1622007962.608383,1.7161000000000002
1622007962.6085672,1.7161000000000002
1622007962.608754,1.7424000000000002
1622007962.6089451,1.7956000000000003
1622007962.6090977,1.8496000000000004
1622007962.6092858,1.9599999999999997
1622007962.6095004,2.0448999999999997
1622007962.6096535,2.1025
1622007962.6103554,2.1609
1622007962.6145537,2.2201
1622007962.6229775,2.4336
1622007962.626974,2.4649
1622007962.6351278,2.3409
1622007962.6436408,2.3409
1622007962.6475544,2.3716
1622007962.6557662,2.3104
1622007962.660002,2.25
1622007962.6680782,2.2201
1622007962.672219,2.1609
1622007962.680262,2.1315999999999997
1622007962.6843622,2.1609
1622007962.6929502,2.1904
1622007962.6970592,2.25
1622007962.7049751,2.3409
1622007962.7090478,2.3716
1622007962.7171543,2.4025000000000003
1622007962.721287,2.4025000000000003
1622007962.7294543,2.3409
1622007962.7336326,2.2801
1622007962.74159,2.25
1622007962.7457194,2.25
1622007962.7540295,2.2801
1622007962.7581804,2.3104
1622007962.7664404,2.4025000000000003
1622007962.7707362,2.4336
1622007962.7787914,2.4649
1622007962.7870908,2.4964000000000004
1622007962.791306,2.4649
1622007962.799358,2.3104
1622007962.8033795,2.3409
1622007962.8114476,2.3716
1622007962.8155007,2.4025000000000003
1622007962.8236704,2.4336
1622007962.8280718,2.5600000000000005
1622007962.8361866,2.7556
1622007962.840088,2.8560999999999996
1622007962.8483624,2.7889
1622007962.8523655,2.6244000000000005
1622007962.8605502,2.4964000000000004
1622007962.8646736,2.5281000000000002
1622007962.8727365,2.5281000000000002
1622007962.8768332,2.4964000000000004
1622007962.8848934,2.4336
1622007962.8891869,2.3409
1622007962.8975286,2.1904
1622007962.9016495,2.0164
1622007962.9098144,1.9043999999999996
1622007962.9138744,2.1904
1622007962.9221132,3.3856
1622007962.9261832,5.7121
1622007962.934392,9.3636
1622007962.9423864,12.8164
1622007962.9467456,13.1044
1622007962.9550161,10.368400000000001
1622007962.9592552,6.969600000000001
1622007962.9673336,4.494400000000001
1622007962.9712238,2.8560999999999996
1622007962.9793973,1.9320999999999997
1622007962.9834456,1.5376
1622007962.9915683,1.3923999999999999
1622007962.9957123,1.3688999999999998
1622007963.0038476,1.4161
1622007963.0078833,1.4641
1622007963.0159874,1.4884
1622007963.02043,1.5625
1622007963.0283675,1.6641000000000001
1622007963.032678,1.7956000000000003
1622007963.0407658,1.9043999999999996
1622007963.044764,2.0164
1622007963.0531888,2.1315999999999997
1622007963.0573123,2.2201
1622007963.0654116,2.3409
1622007963.0693192,2.3716
1622007963.077743,2.4336
1622007963.0859365,2.4964000000000004
1622007963.090016,2.5600000000000005
1622007963.0981858,2.6569
1622007963.1022909,2.8899999999999997
1622007963.1107628,3.0625
1622007963.1145244,3.1684
1622007963.1226754,3.2761
1622007963.126834,3.4969000000000006
1622007963.134887,3.61
1622007963.1390405,3.61
1622007963.1470213,3.4596000000000005
1622007963.1511433,3.2041
1622007963.159543,3.0625
1622007963.1635458,2.9583999999999997
1622007963.1718595,2.7889
1622007963.1759279,2.5921000000000003
1622007963.1840353,2.4025000000000003
1622007963.18831,2.1609
1622007963.19644,1.9320999999999997
1622007963.2005675,1.8496000000000004
1622007963.2087517,1.7689000000000001
1622007963.2128544,1.6900000000000002
1622007963.2210267,1.6641000000000001
1622007963.2291853,1.6641000000000001
1622007963.2334168,1.6129
1622007963.2416422,1.5625
1622007963.2456656,1.5376
1622007963.2537591,1.4884
1622007963.257866,1.5876000000000001
1622007963.2660277,1.6641000000000001
1622007963.2701662,1.6900000000000002
1622007963.2782016,1.7424000000000002
1622007963.2823539,1.8225000000000002
1622007963.2904828,1.8769000000000002
1622007963.2945638,1.9599999999999997
1622007963.3033397,2.1025
1622007963.3070183,2.1609
1622007963.315188,2.1904
1622007963.3194995,2.2201
1622007963.32772,2.2201
1622007963.3316572,2.1609
1622007963.339903,2.1609
1622007963.3439453,2.1609
1622007963.3520575,2.1025
1622007963.3561935,2.1025
1622007963.3644729,2.1904
1622007963.3686428,2.25
1622007963.3767698,2.3409
1622007963.3847547,2.2801
1622007963.3888094,2.2201
1622007963.3970304,2.2201
1622007963.401102,2.3104
1622007963.4091797,2.3104
1622007963.4135172,2.3104
1622007963.4219284,2.25
1622007963.4261777,2.2801
1622007963.434326,2.25
1622007963.4381297,2.2201
1622007963.4466286,2.2201
1622007963.4504626,2.25
1622007963.4590013,2.25
1622007963.462749,2.3409
1622007963.4710302,2.4649
1622007963.475069,2.5281000000000002
1622007963.4831614,2.6244000000000005
1622007963.4872966,2.6569
1622007963.4956648,2.6895999999999995
1622007963.4996173,2.7224999999999997
1622007963.5078743,2.6244000000000005
1622007963.511821,2.5281000000000002
1622007963.5199695,2.4649
1622007963.5281317,2.3716
1622007963.5322757,2.2201
1622007963.5402956,2.1025
1622007963.5443847,2.1315999999999997
1622007963.5529187,2.1609
1622007963.5570207,2.0164
1622007963.5651078,1.9043999999999996
1622007963.5689614,2.0164
1622007963.5772173,2.6569
1622007963.5812798,4.2848999999999995
1622007963.5897846,7.4529
1622007963.593927,11.0224
1622007963.6020079,12.460899999999999
1622007963.6063254,10.6929
1622007963.6144786,7.5625
1622007963.6183717,4.840000000000001
1622007963.6268826,2.9929
1622007963.6306517,1.9880999999999998
1622007963.639164,1.5376
1622007963.6429398,1.3923999999999999
1622007963.6510391,1.3456
1622007963.6551547,1.3688999999999998
1622007963.6633475,1.3688999999999998
1622007963.667667,1.3688999999999998
1622007963.6758657,1.4641
1622007963.684066,1.6384
1622007963.688231,1.7956000000000003
1622007963.6963596,1.9043999999999996
1622007963.7005248,1.9880999999999998
1622007963.7086654,2.0736
1622007963.7125587,2.1315999999999997
1622007963.721011,2.2201
1622007963.7249506,2.3716
1622007963.7332673,2.4336
1622007963.7372653,2.4964000000000004
1622007963.7455392,2.6569
1622007963.74973,2.8223999999999996
1622007963.7579405,2.8899999999999997
1622007963.7621024,3.0625
1622007963.769811,3.2761
1622007963.774008,3.3489000000000004
1622007963.7820864,3.3856
1622007963.786206,3.4596000000000005
1622007963.7943113,3.3856
1622007963.7984273,3.2761
1622007963.8067355,3.0976
1622007963.8108668,2.9240999999999997
1622007963.8194087,2.7224999999999997
1622007963.8272755,2.5600000000000005
1622007963.8313775,2.4025000000000003
1622007963.8396764,2.25
1622007963.8436244,2.1025
1622007963.9866822,1.9599999999999997
1622007963.9869435,1.8496000000000004
1622007963.9871294,1.7424000000000002
1622007963.9873517,1.7161000000000002
1622007963.9875185,1.6641000000000001
1622007963.987698,1.6129
1622007963.987889,1.5876000000000001
1622007963.9880316,1.5876000000000001
1622007963.9882066,1.5625
1622007963.9883924,1.5625
1622007963.9886024,1.5625
1622007963.9887788,1.6129
1622007963.9889352,1.6900000000000002
1622007963.9891052,1.7424000000000002
1622007963.989307,1.7424000000000002
1622007963.9894497,1.7689000000000001
1622007963.9896352,1.8225000000000002
1622007963.989811,1.9320999999999997
1622007963.9899647,2.0164
1622007963.9901507,2.0736
1622007963.9903183,2.1609
1622007963.990481,2.2201
1622007963.9907033,2.2201
1622007963.9947803,2.2801
1622007963.999139,2.2801
1622007964.0071826,2.2801
1622007964.0112627,2.25
1622007964.0198185,2.2201
1622007964.023562,2.3409
1622007964.0319932,2.4336
1622007964.0359561,2.3104
1622007964.0441308,2.2201
1622007964.0484478,2.1904
1622007964.0566843,2.1609
1622007964.0610569,2.1609
1622007964.0690992,2.2201
1622007964.0732517,2.25
1622007964.081197,2.2801
1622007964.0855927,2.2801
1622007964.0933828,2.3104
1622007964.0975883,2.4025000000000003
1622007964.1056807,2.4336
1622007964.1096797,2.3716
1622007964.1177995,2.3104
1622007964.1259232,2.3104
1622007964.1301684,2.3104
1622007964.1385574,2.25
1622007964.1425786,2.2201
1622007964.1508856,2.1904
1622007964.1549897,2.25
1622007964.1631527,2.3716
1622007964.166976,2.4649
1622007964.175312,2.4649
1622007964.1795745,2.4964000000000004
1622007964.187819,2.6244000000000005
1622007964.1918979,2.7224999999999997
1622007964.2000449,2.7556
1622007964.2040942,2.7889
1622007964.2125006,2.6569
1622007964.2164738,2.5281000000000002
1622007964.2246237,2.4649
1622007964.2286005,2.4336
1622007964.2368064,2.4025000000000003
1622007964.2408667,2.3409
1622007964.249074,2.3409
1622007964.2530231,2.3716
1622007964.2612014,2.3104
1622007964.2696545,2.1904
1622007964.2737913,2.0164
1622007964.2816749,2.1315999999999997
1622007964.2860603,2.8899999999999997
1622007964.2942922,4.752400000000001
1622007964.2983646,8.2369
1622007964.3067372,12.6025
1622007964.3105938,14.5924
1622007964.3188868,12.96
1622007964.3229008,9.5481
1622007964.3310938,6.3504000000000005
1622007964.3350728,4.040099999999999
1622007964.3432586,2.6895999999999995
1622007964.347653,1.9320999999999997
1622007964.3557773,1.5876000000000001
1622007964.3597538,1.4641
1622007964.3678029,1.3923999999999999
1622007964.3719501,1.3224999999999998
1622007964.3800929,1.2995999999999999
1622007964.3843017,1.2995999999999999
1622007964.3923216,1.3456
1622007964.3963616,1.3923999999999999
1622007964.4048572,1.4884
1622007964.413005,1.6384
1622007964.4171267,1.7161000000000002
1622007964.4252682,1.7956000000000003
1622007964.4293516,1.9043999999999996
1622007964.437564,2.0448999999999997
1622007964.4417353,2.1609
1622007964.4499967,2.3104
1622007964.4541864,2.4025000000000003
1622007964.4623375,2.4649
1622007964.4664602,2.5921000000000003
1622007964.4746857,2.6569
1622007964.4788115,2.7889
1622007964.4870017,2.9929
1622007964.4908032,3.0276
1622007964.4988687,2.9583999999999997
1622007964.5030236,2.9929
1622007964.5112107,3.0625
1622007964.515375,3.0276
1622007964.5237443,3.0276
1622007964.527657,2.9583999999999997
1622007964.5360358,2.8560999999999996
1622007964.5401843,2.6569
1622007964.5483425,2.4649
1622007964.5525067,2.2201
1622007964.5607097,2.0448999999999997
1622007964.5688174,1.9599999999999997
1622007964.572716,1.8225000000000002
1622007964.5810986,1.7161000000000002
1622007964.5852659,1.6384
1622007964.5934412,1.5376
1622007964.5975397,1.5376
1622007964.6056647,1.6384
1622007964.6095624,1.6900000000000002
1622007964.6176572,1.6900000000000002
1622007964.621769,1.6900000000000002
1622007964.6299827,1.7689000000000001
1622007964.6340225,1.7689000000000001
1622007964.6420438,1.8496000000000004
1622007964.646425,1.9880999999999998
1622007964.6548266,2.0736
1622007964.6589315,2.1025
1622007964.6671147,2.1315999999999997
1622007964.6709492,2.1025
1622007964.6792789,2.0736
1622007964.6831703,2.1025
1622007964.6915123,2.1025
1622007964.6956027,2.1315999999999997
1622007964.7038126,2.1609
1622007964.711952,2.1315999999999997
1622007964.7161455,2.0736
1622007964.7243922,2.1025
1622007964.7283137,2.1609
1622007964.7367475,2.1609
1622007964.740631,2.2201
1622007964.748752,2.2801
1622007964.7528644,2.3104
1622007964.761015,2.2801
1622007964.76516,2.2801
1622007964.773191,2.25
1622007964.7772665,2.2801
1622007964.7857895,2.2801
1622007964.7898927,2.25
1622007964.7979465,2.2201
1622007964.801878,2.1904
1622007964.8101325,2.25
1622007964.8144317,2.3716
1622007964.82267,2.4025000000000003
1622007964.8267896,2.4336
1622007964.8349578,2.4649
1622007964.8388104,2.4649
1622007964.847233,2.4025000000000003
1622007964.8552058,2.4025000000000003
1622007964.8592708,2.3409
1622007964.8677342,2.3716
1622007964.87178,2.4336
1622007964.8798823,2.4025000000000003
1622007964.8838997,2.4336
1622007964.892086,2.4025000000000003
1622007964.8961768,2.4336
1622007964.9043126,2.5600000000000005
1622007964.908344,2.5921000000000003
1622007964.9164536,2.5600000000000005
1622007964.920658,2.5600000000000005
1622007964.928933,2.5921000000000003
1622007964.933239,2.6895999999999995
1622007964.941107,2.7889
1622007964.9453876,2.8223999999999996
1622007964.953685,2.7224999999999997
1622007964.9578822,2.6895999999999995
1622007964.9659948,2.7224999999999997
1622007964.9700723,2.7556
1622007964.978275,2.7889
1622007964.9821434,2.8223999999999996
1622007964.990388,2.8223999999999996
1622007964.9947162,2.7889
1622007965.0028837,2.7889
1622007965.0107484,2.5281000000000002
1622007965.0148041,2.1609
1622007965.0230243,2.1315999999999997
1622007965.0271435,2.7889
1622007965.0353022,4.536899999999999
1622007965.0395539,7.839999999999999
1622007965.0477157,12.1104
1622007965.0518937,14.44
1622007965.0601835,12.6736
1622007965.0641398,9.2416
1622007965.0724692,6.100900000000001
1622007965.076644,3.8024999999999998
1622007965.0848067,2.4964000000000004
1622007965.0889595,1.8769000000000002
1622007965.0970836,1.5376
1622007965.1012352,1.44
1622007965.1093652,1.4161
1622007965.1132379,1.4641
1622007965.121415,1.5876000000000001
1622007965.1258452,1.6384
1622007965.1340015,1.6384
1622007965.1381032,1.6641000000000001
1622007965.1459842,1.7424000000000002
1622007965.154159,1.8496000000000004
1622007965.158266,1.9320999999999997
1622007965.1664505,1.9880999999999998
1622007965.1706095,2.1315999999999997
1622007965.1787426,2.1904
1622007965.182844,2.3104
1622007965.1912353,2.4649
1622007965.1951773,2.5921000000000003
1622007965.2035031,2.6569
1622007965.2077568,2.7224999999999997
1622007965.215808,2.8899999999999997
1622007965.2200556,3.0625
1622007965.2282767,3.3124000000000002
1622007965.2321546,3.3489000000000004
1622007965.2402773,3.3124000000000002
1622007965.2446883,3.3489000000000004
1622007965.252865,3.2761
1622007965.2567875,3.0976
1622007965.2651756,2.9240999999999997
1622007965.2690759,2.7889
1622007965.2771082,2.6244000000000005
1622007965.2811766,2.4964000000000004
1622007965.2894008,2.3409
1622007965.2974417,2.1609
1622007965.30154,2.0736
1622007965.309751,2.0164
1622007965.3137321,1.9043999999999996
1622007965.3225021,1.7424000000000002
1622007965.3267076,1.6384
1622007965.471357,1.5876000000000001
1622007965.471599,1.5376
1622007965.4717855,1.4884
1622007965.471971,1.44
1622007965.472167,1.4641
1622007965.472345,1.4884
1622007965.4725404,1.5876000000000001
1622007965.4727387,1.6129
1622007965.4729662,1.7161000000000002
1622007965.4731264,1.8496000000000004
1622007965.4733489,1.9880999999999998
1622007965.4735076,2.1025
1622007965.4737089,2.2201
1622007965.473849,2.2801
1622007965.4740632,2.25
1622007965.474251,2.2201
1622007965.4744618,2.1904
1622007965.4746616,2.1315999999999997
1622007965.4748178,2.1315999999999997
1622007965.474976,2.1315999999999997
1622007965.4751227,2.1609
1622007965.4752784,2.25
1622007965.4754431,2.3104
1622007965.4774964,2.3409
1622007965.481644,2.4025000000000003
1622007965.4903119,2.4964000000000004
1622007965.494194,2.4649
1622007965.5026553,2.3716
1622007965.5065277,2.3409
1622007965.5146027,2.25
1622007965.518704,2.3104
1622007965.5267835,2.3409
1622007965.530961,2.3104
1622007965.5392175,2.3104
1622007965.543402,2.25
1622007965.551783,2.1904
1622007965.5560167,2.1904
1622007965.564117,2.1904
1622007965.5682604,2.2201
1622007965.5761495,2.1904
1622007965.5802252,2.25
1622007965.588371,2.3409
1622007965.596548,2.4025000000000003
1622007965.6007023,2.4025000000000003
1622007965.608705,2.3409
1622007965.6127834,2.3104
1622007965.6212893,2.3409
1622007965.625425,2.3409
1622007965.6335082,2.4025000000000003
1622007965.6376936,2.4025000000000003
1622007965.645872,2.5600000000000005
1622007965.6499538,2.6569
1622007965.6579282,2.7224999999999997
1622007965.6623623,2.8223999999999996
1622007965.6706548,2.7889
1622007965.6749191,2.6244000000000005
1622007965.6827135,2.4649
1622007965.6868463,2.4025000000000003
1622007965.695048,2.3409
1622007965.6991284,2.25
1622007965.707183,2.25
1622007965.7113283,2.1609
1622007965.719445,2.0736
1622007965.7235754,1.9320999999999997
1622007965.7317295,1.9043999999999996
1622007965.7397823,2.3104
1622007965.743814,3.4596000000000005
1622007965.7520928,5.9536
1622007965.7561867,9.672099999999999
1622007965.7645426,12.460899999999999
1622007965.7687347,12.0409
1622007965.776657,9.1809
1622007965.7808373,6.002500000000001
1622007965.7892208,3.61
1622007965.7933795,2.2801
1622007965.8016236,1.7424000000000002
1622007965.8055215,1.4884
1622007965.813997,1.3224999999999998
1622007965.818112,1.2768999999999997
1622007965.8262653,1.3923999999999999
1622007965.8304012,1.5625
1622007965.838371,1.7161000000000002
1622007965.8427463,1.8496000000000004
1622007965.8506136,1.9043999999999996
1622007965.8547957,1.8769000000000002
1622007965.8629208,1.8769000000000002
1622007965.8669617,1.9043999999999996
1622007965.8749638,1.9880999999999998
1622007965.879036,2.0736
1622007965.887297,2.1609
1622007965.8954144,2.25
1622007965.8997357,2.3104
1622007965.9079,2.4336
1622007965.9118745,2.6895999999999995
1622007965.920256,2.8899999999999997
1622007965.9243672,3.0625
1622007965.9325514,3.2761
1622007965.9368403,3.4225000000000003
1622007965.9448402,3.5343999999999998
1622007965.9492047,3.5721
1622007965.9573145,3.4969000000000006
1622007965.9614782,3.3856
1622007965.969658,3.2041
1622007965.9735026,3.0625
1622007965.9815571,2.8899999999999997
1622007965.9857042,2.7556
1622007965.9938445,2.5921000000000003
1622007965.9979584,2.4649
1622007966.006144,2.3104
1622007966.0101464,2.1609
1622007966.0184343,1.9880999999999998
1622007966.0226784,1.8225000000000002
1622007966.0312011,1.7161000000000002
1622007966.0390081,1.6384
1622007966.04308,1.5376
1622007966.0514374,1.5129
1622007966.0555763,1.5129
1622007966.0636933,1.5376
1622007966.0678754,1.5625
1622007966.0760393,1.5876000000000001
1622007966.0801973,1.6900000000000002
1622007966.088346,1.7956000000000003
1622007966.0922472,1.8225000000000002
1622007966.100656,1.7956000000000003
1622007966.1047423,1.8225000000000002
1622007966.1130216,1.8769000000000002
1622007966.1168313,1.8769000000000002
1622007966.1249115,1.9320999999999997
1622007966.1290467,2.0448999999999997
1622007966.1372435,2.1025
1622007966.1413958,2.25
1622007966.149864,2.3104
1622007966.1540618,2.2201
1622007966.1621768,2.1315999999999997
1622007966.1659617,2.1025
1622007966.1744258,2.1609
1622007966.182372,2.2801
1622007966.186584,2.4025000000000003
1622007966.1945808,2.4336
1622007966.1987407,2.3104
1622007966.2068827,2.2201
1622007966.21103,2.2201
1622007966.219315,2.3104
1622007966.2233555,2.3716
1622007966.2315414,2.3104
1622007966.235553,2.25
1622007966.2436593,2.1904
1622007966.247782,2.1904
1622007966.2559724,2.2201
1622007966.2600403,2.2801
1622007966.2680702,2.3104
1622007966.2725296,2.3716
1622007966.280725,2.3716
1622007966.2846754,2.3409
1622007966.292931,2.2801
1622007966.297097,2.2201
1622007966.3052936,2.2201
1622007966.3093975,2.2801
1622007966.3175611,2.3409
1622007966.3216457,2.3716
1622007966.3298771,2.4025000000000003
1622007966.3379934,2.4336
1622007966.3421834,2.4336
1622007966.3503773,2.4964000000000004
1622007966.3546996,2.4649
1622007966.362926,2.4964000000000004
1622007966.3667068,2.4649
1622007966.3747826,2.4336
1622007966.378897,2.4336
1622007966.3871036,2.4025000000000003
1622007966.3912377,2.4649
1622007966.3994958,2.5281000000000002
1622007966.4037852,2.5921000000000003
1622007966.412022,2.6244000000000005
1622007966.4158585,2.5600000000000005
1622007966.4242709,2.4649
1622007966.4284036,2.4964000000000004
1622007966.4364085,2.4336
1622007966.4404423,2.4964000000000004
1622007966.4488797,2.5281000000000002
1622007966.4530873,2.4649
1622007966.4612212,2.3716
1622007966.465299,2.3104
1622007966.473468,2.1609
1622007966.4816008,2.0448999999999997
1622007966.4854512,2.2201
